tau [fm]		Pi [fm^-4]
0.25		-0
0.26		-0.0740958		
0.27		-0.122037		
0.28		-0.149885		
0.29		-0.162368		
0.3		-0.163189		
0.31		-0.155252		
0.32		-0.140842		
0.33		-0.121755		
0.34		-0.0994068		
0.35		-0.0749096		
0.36		-0.0491352		
0.37		-0.0227648		
0.38		0.00367286		
0.39		0.0297704		
0.4		0.055218		
0.41		0.0797836		
0.42		0.103297		
0.43		0.125639		
0.44		0.14673		
0.45		0.16652		
0.46		0.184987		
0.47		0.202126		
0.48		0.217952		
0.49		0.232486		
0.5		0.245764		
0.51		0.257824		
0.52		0.268713		
0.53		0.278479		
0.54		0.287174		
0.55		0.294849		
0.56		0.301559		
0.57		0.307356		
0.58		0.312292		
0.59		0.316419		
0.6		0.319788		
0.61		0.322446		
0.62		0.324442		
0.63		0.32582		
0.64		0.326624		
0.65		0.326896		
0.66		0.326674		
0.67		0.325998		
0.68		0.324903		
0.69		0.323423		
0.7		0.32159		
0.71		0.319434		
0.72		0.316985		
0.73		0.314269		
0.74		0.311311		
0.75		0.308135		
0.76		0.304765		
0.77		0.30122		
0.78		0.29752		
0.79		0.293683		
0.8		0.289728		
0.81		0.285669		
0.82		0.281521		
0.83		0.277298		
0.84		0.273014		
0.85		0.268679		
0.86		0.264305		
0.87		0.259901		
0.88		0.255479		
0.89		0.251045		
0.9		0.246607		
0.91		0.242174		
0.92		0.237752		
0.93		0.233347		
0.94		0.228964		
0.95		0.224609		
0.96		0.220286		
0.97		0.215999		
0.98		0.211752		
0.99		0.207549		
1		0.203392		
1.01		0.199284		
1.02		0.195228		
1.03		0.191225		
1.04		0.187278		
1.05		0.183387		
1.06		0.179555		
1.07		0.175782		
1.08		0.17207		
1.09		0.168418		
1.1		0.164828		
1.11		0.1613		
1.12		0.157834		
1.13		0.154431		
1.14		0.15109		
1.15		0.147811		
1.16		0.144595		
1.17		0.14144		
1.18		0.138348		
1.19		0.135316		
1.2		0.132345		
1.21		0.129433		
1.22		0.126582		
1.23		0.123789		
1.24		0.121054		
1.25		0.118376		
1.26		0.115755		
1.27		0.11319		
1.28		0.11068		
1.29		0.108224		
1.3		0.10582		
1.31		0.103469		
1.32		0.10117		
1.33		0.0989209		
1.34		0.0967214		
1.35		0.0945705		
1.36		0.0924673		
1.37		0.0904109		
1.38		0.0884003		
1.39		0.0864346		
1.4		0.084513		
1.41		0.0826344		
1.42		0.080798		
1.43		0.0790029		
1.44		0.0772482		
1.45		0.075533		
1.46		0.0738564		
1.47		0.0722177		
1.48		0.0706158		
1.49		0.06905		
1.5		0.0675195		
1.51		0.0660235		
1.52		0.0645611		
1.53		0.0631315		
1.54		0.0617341		
1.55		0.060368		
1.56		0.0590324		
1.57		0.0577268		
1.58		0.0564502		
1.59		0.0552022		
1.6		0.0539818		
1.61		0.0527885		
1.62		0.0516217		
1.63		0.0504806		
1.64		0.0493646		
1.65		0.0482732		
1.66		0.0472056		
1.67		0.0461614		
1.68		0.0451399		
1.69		0.0441406		
1.7		0.0431629		
1.71		0.0422062		
1.72		0.0412701		
1.73		0.0403541		
1.74		0.0394576		
1.75		0.0385801		
1.76		0.0377211		
1.77		0.0368803		
1.78		0.0360571		
1.79		0.0352511		
1.8		0.0344618		
1.81		0.0336889		
1.82		0.0329319		
1.83		0.0321904		
1.84		0.0314641		
1.85		0.0307525		
1.86		0.0300552		
1.87		0.029372		
1.88		0.0287024		
1.89		0.0280462		
1.9		0.0274029		
1.91		0.0267722		
1.92		0.0261539		
1.93		0.0255476		
1.94		0.024953		
1.95		0.0243698		
1.96		0.0237978		
1.97		0.0232366		
1.98		0.022686		
1.99		0.0221456		
2		0.0216154		
2.01		0.0210949		
2.02		0.020584		
2.03		0.0200824		
2.04		0.0195899		
2.05		0.0191062		
2.06		0.0186312		
2.07		0.0181645		
2.08		0.0177061		
2.09		0.0172557		
2.1		0.0168131		
2.11		0.0163781		
2.12		0.0159506		
2.13		0.0155303		
2.14		0.015117		
2.15		0.0147106		
2.16		0.014311		
2.17		0.0139179		
2.18		0.0135311		
2.19		0.0131507		
2.2		0.0127763		
2.21		0.0124078		
2.22		0.0120451		
2.23		0.0116881		
2.24		0.0113366		
2.25		0.0109905		
2.26		0.0106496		
2.27		0.0103138		
2.28		0.00998305		
2.29		0.00965715		
2.3		0.00933602		
2.31		0.00901954		
2.32		0.00870758		
2.33		0.00840006		
2.34		0.00809686		
2.35		0.00779787		
2.36		0.007503		
2.37		0.00721216		
2.38		0.00692524		
2.39		0.00664215		
2.4		0.00636281		
2.41		0.00608712		
2.42		0.00581501		
2.43		0.00554638		
2.44		0.00528115		
2.45		0.00501925		
2.46		0.00476061		
2.47		0.00450513		
2.48		0.00425276		
2.49		0.00400342		
2.5		0.00375704		
2.51		0.00351355		
2.52		0.00327289		
2.53		0.00303499		
2.54		0.00279979		
2.55		0.00256723		
2.56		0.00233725		
2.57		0.00210979		
2.58		0.0018848		
2.59		0.00166221		
2.6		0.00144199		
2.61		0.00122406		
2.62		0.00100839		
2.63		0.000794924		
2.64		0.000583611		
2.65		0.000374406		
2.66		0.000167262		
2.67		-3.78653e-05		
2.68		-0.00024102		
2.69		-0.000442244		
2.7		-0.00064158		
2.71		-0.000839068		
2.72		-0.00103475		
2.73		-0.00122866		
2.74		-0.00142083		
2.75		-0.00161132		
2.76		-0.00180014		
2.77		-0.00198733		
2.78		-0.00217294		
2.79		-0.00235698		
2.8		-0.00253951		
2.81		-0.00272053		
2.82		-0.0029001		
2.83		-0.00307823		
2.84		-0.00325495		
2.85		-0.0034303		
2.86		-0.0036043		
2.87		-0.00377698		
2.88		-0.00394837		
2.89		-0.00411849		
2.9		-0.00428736		
2.91		-0.00445502		
2.92		-0.00462148		
2.93		-0.00478676		
2.94		-0.0049509		
2.95		-0.00511392		
2.96		-0.00527582		
2.97		-0.00543664		
2.98		-0.0055964		
2.99		-0.00575512		
3		-0.00591281		
3.01		-0.0060695		
3.02		-0.0062252		
3.03		-0.00637994		
3.04		-0.00653372		
3.05		-0.00668657		
3.06		-0.00683851		
3.07		-0.00698955		
3.08		-0.0071397		
3.09		-0.00728899		
3.1		-0.00743743		
3.11		-0.00758503		
3.12		-0.0077318		
3.13		-0.00787777		
3.14		-0.00802295		
3.15		-0.00816734		
3.16		-0.00831097		
3.17		-0.00845384		
3.18		-0.00859597		
3.19		-0.00873738		
3.2		-0.00887806		
3.21		-0.00901804		
3.22		-0.00915733		
3.23		-0.00929593		
3.24		-0.00943386		
3.25		-0.00957113		
3.26		-0.00970775		
3.27		-0.00984373		
3.28		-0.00997908		
3.29		-0.0101138		
3.3		-0.0102479		
3.31		-0.0103814		
3.32		-0.0105144		
3.33		-0.0106467		
3.34		-0.0107785		
3.35		-0.0109096		
3.36		-0.0110403		
3.37		-0.0111704		
3.38		-0.0112999		
3.39		-0.0114289		
3.4		-0.0115574		
3.41		-0.0116853		
3.42		-0.0118128		
3.43		-0.0119397		
3.44		-0.0120661		
3.45		-0.0121921		
3.46		-0.0123175		
3.47		-0.0124425		
3.48		-0.012567		
3.49		-0.012691		
3.5		-0.0128146		
3.51		-0.0129377		
3.52		-0.0130604		
3.53		-0.0131826		
3.54		-0.0133043		
3.55		-0.0134257		
3.56		-0.0135466		
3.57		-0.0136671		
3.58		-0.0137871		
3.59		-0.0139068		
3.6		-0.014026		
3.61		-0.0141449		
3.62		-0.0142633		
3.63		-0.0143813		
3.64		-0.014499		
3.65		-0.0146162		
3.66		-0.0147331		
3.67		-0.0148496		
3.68		-0.0149657		
3.69		-0.0150814		
3.7		-0.0151968		
3.71		-0.0153118		
3.72		-0.0154264		
3.73		-0.0155407		
3.74		-0.0156546		
3.75		-0.0157682		
3.76		-0.0158814		
3.77		-0.0159943		
3.78		-0.0161068		
3.79		-0.016219		
3.8		-0.0163309		
3.81		-0.0164424		
3.82		-0.0165536		
3.83		-0.0166645		
3.84		-0.0167751		
3.85		-0.0168853		
3.86		-0.0169952		
3.87		-0.0171048		
3.88		-0.0172141		
3.89		-0.017323		
3.9		-0.0174317		
3.91		-0.01754		
3.92		-0.0176481		
3.93		-0.0177558		
3.94		-0.0178632		
3.95		-0.0179704		
3.96		-0.0180772		
3.97		-0.0181838		
3.98		-0.01829		
3.99		-0.018396		
4		-0.0185017		
4.01		-0.0186071		
4.02		-0.0187122		
4.03		-0.018817		
4.04		-0.0189216		
4.05		-0.0190259		
4.06		-0.0191298		
4.07		-0.0192336		
4.08		-0.019337		
4.09		-0.0194402		
4.1		-0.0195431		
4.11		-0.0196457		
4.12		-0.0197481		
4.13		-0.0198502		
4.14		-0.019952		
4.15		-0.0200536		
4.16		-0.0201549		
4.17		-0.0202559		
4.18		-0.0203567		
4.19		-0.0204573		
4.2		-0.0205575		
4.21		-0.0206576		
4.22		-0.0207573		
4.23		-0.0208569		
4.24		-0.0209561		
4.25		-0.0210551		
4.26		-0.0211539		
4.27		-0.0212524		
4.28		-0.0213507		
4.29		-0.0214487		
4.3		-0.0215465		
4.31		-0.0216441		
4.32		-0.0217414		
4.33		-0.0218384		
4.34		-0.0219352		
4.35		-0.0220318		
4.36		-0.0221282		
4.37		-0.0222243		
4.38		-0.0223201		
4.39		-0.0224158		
4.4		-0.0225112		
4.41		-0.0226063		
4.42		-0.0227013		
4.43		-0.022796		
4.44		-0.0228905		
4.45		-0.0229847		
4.46		-0.0230787		
4.47		-0.0231725		
4.48		-0.0232661		
4.49		-0.0233594		
4.5		-0.0234525		
4.51		-0.0235454		
4.52		-0.0236381		
4.53		-0.0237305		
4.54		-0.0238227		
4.55		-0.0239147		
4.56		-0.0240065		
4.57		-0.024098		
4.58		-0.0241894		
4.59		-0.0242805		
4.6		-0.0243714		
4.61		-0.0244621		
4.62		-0.0245525		
4.63		-0.0246428		
4.64		-0.0247328		
4.65		-0.0248226		
4.66		-0.0249122		
4.67		-0.0250016		
4.68		-0.0250908		
4.69		-0.0251798		
4.7		-0.0252685		
4.71		-0.0253571		
4.72		-0.0254454		
4.73		-0.0255336		
4.74		-0.0256215		
4.75		-0.0257092		
4.76		-0.0257967		
4.77		-0.025884		
4.78		-0.0259711		
4.79		-0.026058		
4.8		-0.0261446		
4.81		-0.0262311		
4.82		-0.0263174		
4.83		-0.0264034		
4.84		-0.0264893		
4.85		-0.026575		
4.86		-0.0266604		
4.87		-0.0267457		
4.88		-0.0268307		
4.89		-0.0269156		
4.9		-0.0270002		
4.91		-0.0270847		
4.92		-0.0271689		
4.93		-0.027253		
4.94		-0.0273369		
4.95		-0.0274205		
4.96		-0.027504		
4.97		-0.0275873		
4.98		-0.0276703		
4.99		-0.0277532		
5		-0.0278359		
5.01		-0.0279184		
5.02		-0.0280007		
5.03		-0.0280828		
5.04		-0.0281647		
5.05		-0.0282464		
5.06		-0.0283279		
5.07		-0.0284092		
5.08		-0.0284904		
5.09		-0.0285713		
5.1		-0.0286521		
5.11		-0.0287327		
5.12		-0.028813		
5.13		-0.0288932		
5.14		-0.0289732		
5.15		-0.029053		
5.16		-0.0291327		
5.17		-0.0292121		
5.18		-0.0292913		
5.19		-0.0293704		
5.2		-0.0294493		
5.21		-0.029528		
5.22		-0.0296065		
5.23		-0.0296848		
5.24		-0.0297629		
5.25		-0.0298409		
5.26		-0.0299187		
5.27		-0.0299962		
5.28		-0.0300737		
5.29		-0.0301509		
5.3		-0.0302279		
5.31		-0.0303048		
5.32		-0.0303814		
5.33		-0.0304579		
5.34		-0.0305343		
5.35		-0.0306104		
5.36		-0.0306864		
5.37		-0.0307621		
5.38		-0.0308377		
5.39		-0.0309132		
5.4		-0.0309884		
5.41		-0.0310635		
5.42		-0.0311384		
5.43		-0.0312131		
5.44		-0.0312876		
5.45		-0.031362		
5.46		-0.0314362		
5.47		-0.0315102		
5.48		-0.031584		
5.49		-0.0316577		
5.5		-0.0317311		
5.51		-0.0318045		
5.52		-0.0318776		
5.53		-0.0319506		
5.54		-0.0320234		
5.55		-0.032096		
5.56		-0.0321684		
5.57		-0.0322407		
5.58		-0.0323128		
5.59		-0.0323848		
5.6		-0.0324565		
5.61		-0.0325281		
5.62		-0.0325996		
5.63		-0.0326708		
5.64		-0.0327419		
5.65		-0.0328128		
5.66		-0.0328836		
5.67		-0.0329542		
5.68		-0.0330246		
5.69		-0.0330949		
5.7		-0.033165		
5.71		-0.0332349		
5.72		-0.0333046		
5.73		-0.0333742		
5.74		-0.0334437		
5.75		-0.0335129		
5.76		-0.033582		
5.77		-0.0336509		
5.78		-0.0337197		
5.79		-0.0337883		
5.8		-0.0338568		
5.81		-0.0339251		
5.82		-0.0339932		
5.83		-0.0340611		
5.84		-0.0341289		
5.85		-0.0341966		
5.86		-0.034264		
5.87		-0.0343314		
5.88		-0.0343985		
5.89		-0.0344655		
5.9		-0.0345323		
5.91		-0.034599		
5.92		-0.0346655		
5.93		-0.0347319		
5.94		-0.0347981		
5.95		-0.0348642		
5.96		-0.0349301		
5.97		-0.0349958		
5.98		-0.0350614		
5.99		-0.0351268		
6		-0.035192		
6.01		-0.0352572		
6.02		-0.0353221		
6.03		-0.0353869		
6.04		-0.0354516		
6.05		-0.0355161		
6.06		-0.0355804		
6.07		-0.0356446		
6.08		-0.0357086		
6.09		-0.0357725		
6.1		-0.0358362		
6.11		-0.0358998		
6.12		-0.0359632		
6.13		-0.0360265		
6.14		-0.0360896		
6.15		-0.0361526		
6.16		-0.0362154		
6.17		-0.0362781		
6.18		-0.0363406		
6.19		-0.036403		
6.2		-0.0364652		
6.21		-0.0365273		
6.22		-0.0365892		
6.23		-0.036651		
6.24		-0.0367126		
6.25		-0.0367741		
6.26		-0.0368355		
6.27		-0.0368967		
6.28		-0.0369577		
6.29		-0.0370186		
6.3		-0.0370794		
6.31		-0.03714		
6.32		-0.0372005		
6.33		-0.0372608		
6.34		-0.037321		
6.35		-0.037381		
6.36		-0.0374409		
6.37		-0.0375006		
6.38		-0.0375603		
6.39		-0.0376197		
6.4		-0.037679		
6.41		-0.0377382		
6.42		-0.0377973		
6.43		-0.0378562		
6.44		-0.0379149		
6.45		-0.0379735		
6.46		-0.038032		
6.47		-0.0380904		
6.48		-0.0381486		
6.49		-0.0382066		
6.5		-0.0382645		
6.51		-0.0383223		
6.52		-0.03838		
6.53		-0.0384375		
6.54		-0.0384949		
6.55		-0.0385521		
6.56		-0.0386092		
6.57		-0.0386662		
6.58		-0.038723		
6.59		-0.0387797		
6.6		-0.0388362		
6.61		-0.0388926		
6.62		-0.0389489		
6.63		-0.0390051		
6.64		-0.0390611		
6.65		-0.039117		
6.66		-0.0391727		
6.67		-0.0392283		
6.68		-0.0392838		
6.69		-0.0393392		
6.7		-0.0393944		
6.71		-0.0394495		
6.72		-0.0395044		
6.73		-0.0395593		
6.74		-0.0396139		
6.75		-0.0396685		
6.76		-0.0397229		
6.77		-0.0397772		
6.78		-0.0398314		
6.79		-0.0398855		
6.8		-0.0399394		
6.81		-0.0399932		
6.82		-0.0400468		
6.83		-0.0401003		
6.84		-0.0401537		
6.85		-0.040207		
6.86		-0.0402602		
6.87		-0.0403132		
6.88		-0.0403661		
6.89		-0.0404188		
6.9		-0.0404715		
6.91		-0.040524		
6.92		-0.0405764		
6.93		-0.0406286		
6.94		-0.0406808		
6.95		-0.0407328		
6.96		-0.0407847		
6.97		-0.0408364		
6.98		-0.0408881		
6.99		-0.0409396		
7		-0.040991		
7.01		-0.0410423		
7.02		-0.0410934		
7.03		-0.0411445		
7.04		-0.0411954		
7.05		-0.0412462		
7.06		-0.0412968		
7.07		-0.0413474		
7.08		-0.0413978		
7.09		-0.0414481		
7.1		-0.0414983		
7.11		-0.0415484		
7.12		-0.0415983		
7.13		-0.0416481		
7.14		-0.0416978		
7.15		-0.0417474		
7.16		-0.0417969		
7.17		-0.0418463		
7.18		-0.0418955		
7.19		-0.0419446		
7.2		-0.0419936		
7.21		-0.0420425		
7.22		-0.0420913		
7.23		-0.0421399		
7.24		-0.0421885		
7.25		-0.0422369		
7.26		-0.0422852		
7.27		-0.0423334		
7.28		-0.0423814		
7.29		-0.0424294		
7.3		-0.0424773		
7.31		-0.042525		
7.32		-0.0425726		
7.33		-0.0426201		
7.34		-0.0426675		
7.35		-0.0427148		
7.36		-0.042762		
7.37		-0.042809		
7.38		-0.042856		
7.39		-0.0429028		
7.4		-0.0429495		
7.41		-0.0429961		
7.42		-0.0430426		
7.43		-0.043089		
7.44		-0.0431353		
7.45		-0.0431815		
7.46		-0.0432275		
7.47		-0.0432735		
7.48		-0.0433193		
7.49		-0.0433651		
7.5		-0.0434107		
7.51		-0.0434562		
7.52		-0.0435016		
7.53		-0.0435469		
7.54		-0.0435921		
7.55		-0.0436372		
7.56		-0.0436822		
7.57		-0.0437271		
7.58		-0.0437718		
7.59		-0.0438165		
7.6		-0.0438611		
7.61		-0.0439055		
7.62		-0.0439499		
7.63		-0.0439941		
7.64		-0.0440382		
7.65		-0.0440823		
7.66		-0.0441262		
7.67		-0.04417		
7.68		-0.0442137		
7.69		-0.0442573		
7.7		-0.0443009		
7.71		-0.0443443		
7.72		-0.0443876		
7.73		-0.0444308		
7.74		-0.0444739		
7.75		-0.0445169		
7.76		-0.0445598		
7.77		-0.0446026		
7.78		-0.0446453		
7.79		-0.0446879		
7.8		-0.0447304		
7.81		-0.0447728		
7.82		-0.0448151		
7.83		-0.0448573		
7.84		-0.0448994		
7.85		-0.0449414		
7.86		-0.0449833		
7.87		-0.0450251		
7.88		-0.0450668		
7.89		-0.0451084		
7.9		-0.0451499		
7.91		-0.0451913		
7.92		-0.0452326		
7.93		-0.0452738		
7.94		-0.0453149		
7.95		-0.045356		
7.96		-0.0453969		
7.97		-0.0454377		
7.98		-0.0454784		
7.99		-0.0455191		
8		-0.0455596		
8.01		-0.0456001		
8.02		-0.0456404		
8.03		-0.0456807		
8.04		-0.0457208		
8.05		-0.0457609		
8.06		-0.0458009		
8.07		-0.0458407		
8.08		-0.0458805		
8.09		-0.0459202		
8.1		-0.0459598		
8.11		-0.0459993		
8.12		-0.0460387		
8.13		-0.0460781		
8.14		-0.0461173		
8.15		-0.0461564		
8.16		-0.0461955		
8.17		-0.0462344		
8.18		-0.0462733		
8.19		-0.0463121		
8.2		-0.0463508		
8.21		-0.0463894		
8.22		-0.0464279		
8.23		-0.0464663		
8.24		-0.0465046		
8.25		-0.0465428		
8.26		-0.046581		
8.27		-0.046619		
8.28		-0.046657		
8.29		-0.0466949		
8.3		-0.0467327		
8.31		-0.0467704		
8.32		-0.046808		
8.33		-0.0468455		
8.34		-0.046883		
8.35		-0.0469203		
8.36		-0.0469576		
8.37		-0.0469947		
8.38		-0.0470318		
8.39		-0.0470688		
8.4		-0.0471058		
8.41		-0.0471426		
8.42		-0.0471794		
8.43		-0.047216		
8.44		-0.0472526		
8.45		-0.0472891		
8.46		-0.0473255		
8.47		-0.0473618		
8.48		-0.0473981		
8.49		-0.0474342		
8.5		-0.0474703		
8.51		-0.0475063		
8.52		-0.0475422		
8.53		-0.047578		
8.54		-0.0476138		
8.55		-0.0476494		
8.56		-0.047685		
8.57		-0.0477205		
8.58		-0.0477559		
8.59		-0.0477912		
8.6		-0.0478265		
8.61		-0.0478616		
8.62		-0.0478967		
8.63		-0.0479317		
8.64		-0.0479666		
8.65		-0.0480015		
8.66		-0.0480363		
8.67		-0.0480709		
8.68		-0.0481055		
8.69		-0.0481401		
8.7		-0.0481745		
8.71		-0.0482089		
8.72		-0.0482432		
8.73		-0.0482774		
8.74		-0.0483115		
8.75		-0.0483455		
8.76		-0.0483795		
8.77		-0.0484134		
8.78		-0.0484472		
8.79		-0.048481		
8.8		-0.0485146		
8.81		-0.0485482		
8.82		-0.0485817		
8.83		-0.0486152		
8.84		-0.0486485		
8.85		-0.0486818		
8.86		-0.048715		
8.87		-0.0487481		
8.88		-0.0487812		
8.89		-0.0488141		
8.9		-0.048847		
8.91		-0.0488799		
8.92		-0.0489126		
8.93		-0.0489453		
8.94		-0.0489779		
8.95		-0.0490104		
8.96		-0.0490429		
8.97		-0.0490752		
8.98		-0.0491076		
8.99		-0.0491398		
9		-0.0491719		
9.01		-0.049204		
9.02		-0.049236		
9.03		-0.049268		
9.04		-0.0492998		
9.05		-0.0493316		
9.06		-0.0493634		
9.07		-0.049395		
9.08		-0.0494266		
9.09		-0.0494581		
9.1		-0.0494895		
9.11		-0.0495209		
9.12		-0.0495522		
9.13		-0.0495834		
9.14		-0.0496146		
9.15		-0.0496457		
9.16		-0.0496767		
9.17		-0.0497076		
9.18		-0.0497385		
9.19		-0.0497693		
9.2		-0.0498		
9.21		-0.0498307		
9.22		-0.0498613		
9.23		-0.0498918		
9.24		-0.0499223		
9.25		-0.0499526		
9.26		-0.049983		
9.27		-0.0500132		
9.28		-0.0500434		
9.29		-0.0500735		
9.3		-0.0501036		
9.31		-0.0501336		
9.32		-0.0501635		
9.33		-0.0501933		
9.34		-0.0502231		
9.35		-0.0502528		
9.36		-0.0502825		
9.37		-0.050312		
9.38		-0.0503416		
9.39		-0.050371		
9.4		-0.0504004		
9.41		-0.0504297		
9.42		-0.050459		
9.43		-0.0504881		
9.44		-0.0505173		
9.45		-0.0505463		
9.46		-0.0505753		
9.47		-0.0506043		
9.48		-0.0506331		
9.49		-0.0506619		
9.5		-0.0506907		
9.51		-0.0507193		
9.52		-0.0507479		
9.53		-0.0507765		
9.54		-0.050805		
9.55		-0.0508334		
9.56		-0.0508617		
9.57		-0.05089		
9.58		-0.0509183		
9.59		-0.0509464		
9.6		-0.0509745		
9.61		-0.0510026		
9.62		-0.0510306		
9.63		-0.0510585		
9.64		-0.0510864		
9.65		-0.0511142		
9.66		-0.0511419		
9.67		-0.0511696		
9.68		-0.0511972		
9.69		-0.0512247		
9.7		-0.0512522		
9.71		-0.0512797		
9.72		-0.051307		
9.73		-0.0513344		
9.74		-0.0513616		
9.75		-0.0513888		
9.76		-0.0514159		
9.77		-0.051443		
9.78		-0.05147		
9.79		-0.051497		
9.8		-0.0515239		
9.81		-0.0515507		
9.82		-0.0515775		
9.83		-0.0516042		
9.84		-0.0516309		
9.85		-0.0516575		
9.86		-0.0516841		
9.87		-0.0517106		
9.88		-0.051737		
9.89		-0.0517634		
9.9		-0.0517897		
9.91		-0.051816		
9.92		-0.0518422		
9.93		-0.0518683		
9.94		-0.0518944		
9.95		-0.0519204		
9.96		-0.0519464		
9.97		-0.0519724		
9.98		-0.0519982		
9.99		-0.052024		
10		-0.0520498		
10.01		-0.0520755		
10.02		-0.0521011		
10.03		-0.0521267		
10.04		-0.0521523		
10.05		-0.0521778		
10.06		-0.0522032		
10.07		-0.0522286		
10.08		-0.0522539		
10.09		-0.0522791		
10.1		-0.0523044		
10.11		-0.0523295		
10.12		-0.0523546		
10.13		-0.0523797		
10.14		-0.0524047		
10.15		-0.0524296		
10.16		-0.0524545		
10.17		-0.0524793		
10.18		-0.0525041		
10.19		-0.0525289		
10.2		-0.0525536		
10.21		-0.0525782		
10.22		-0.0526028		
10.23		-0.0526273		
10.24		-0.0526518		
10.25		-0.0526762		
10.26		-0.0527005		
10.27		-0.0527249		
10.28		-0.0527491		
10.29		-0.0527734		
10.3		-0.0527975		
10.31		-0.0528216		
10.32		-0.0528457		
10.33		-0.0528697		
10.34		-0.0528937		
10.35		-0.0529176		
10.36		-0.0529415		
10.37		-0.0529653		
10.38		-0.052989		
10.39		-0.0530128		
10.4		-0.0530364		
10.41		-0.05306		
10.42		-0.0530836		
10.43		-0.0531071		
10.44		-0.0531306		
10.45		-0.053154		
10.46		-0.0531774		
10.47		-0.0532007		
10.48		-0.053224		
10.49		-0.0532472		
10.5		-0.0532704		
10.51		-0.0532935		
10.52		-0.0533166		
10.53		-0.0533397		
10.54		-0.0533626		
10.55		-0.0533856		
10.56		-0.0534085		
10.57		-0.0534313		
10.58		-0.0534541		
10.59		-0.0534769		
10.6		-0.0534996		
10.61		-0.0535223		
10.62		-0.0535449		
10.63		-0.0535675		
10.64		-0.05359		
10.65		-0.0536125		
10.66		-0.0536349		
10.67		-0.0536573		
10.68		-0.0536796		
10.69		-0.0537019		
10.7		-0.0537242		
10.71		-0.0537464		
10.72		-0.0537686		
10.73		-0.0537907		
10.74		-0.0538128		
10.75		-0.0538348		
10.76		-0.0538568		
10.77		-0.0538787		
10.78		-0.0539006		
10.79		-0.0539225		
10.8		-0.0539443		
10.81		-0.0539661		
10.82		-0.0539878		
10.83		-0.0540095		
10.84		-0.0540311		
10.85		-0.0540527		
10.86		-0.0540743		
10.87		-0.0540958		
10.88		-0.0541173		
10.89		-0.0541387		
10.9		-0.0541601		
10.91		-0.0541814		
10.92		-0.0542027		
10.93		-0.054224		
10.94		-0.0542452		
10.95		-0.0542664		
10.96		-0.0542875		
