tau [fm]		Pi [fm^-4]
0.25		22.4387
0.26		20.9364		
0.27		19.5318		
0.28		18.2179		
0.29		16.9885		
0.3		15.8378		
0.31		14.7605		
0.32		13.7519		
0.33		12.8077		
0.34		11.9238		
0.35		11.0965		
0.36		10.3223		
0.37		9.59805		
0.38		8.92062		
0.39		8.28724		
0.4		7.69525		
0.41		7.14216		
0.42		6.62563		
0.43		6.14346		
0.44		5.69356		
0.45		5.27398		
0.46		4.88286		
0.47		4.51845		
0.48		4.1791		
0.49		3.86325		
0.5		3.56944		
0.51		3.29626		
0.52		3.04241		
0.53		2.80665		
0.54		2.5878		
0.55		2.38477		
0.56		2.1965		
0.57		2.02203		
0.58		1.86042		
0.59		1.71081		
0.6		1.57238		
0.61		1.44436		
0.62		1.32603		
0.63		1.21672		
0.64		1.11577		
0.65		1.02261		
0.66		0.936665		
0.67		0.857419		
0.68		0.784382		
0.69		0.717096		
0.7		0.655135		
0.71		0.598101		
0.72		0.545622		
0.73		0.497354		
0.74		0.452973		
0.75		0.412181		
0.76		0.374699		
0.77		0.340269		
0.78		0.308652		
0.79		0.279623		
0.8		0.252979		
0.81		0.228527		
0.82		0.206092		
0.83		0.18551		
0.84		0.166631		
0.85		0.149315		
0.86		0.133434		
0.87		0.118871		
0.88		0.105515		
0.89		0.0932666		
0.9		0.0820337		
0.91		0.0717312		
0.92		0.0622813		
0.93		0.0536123		
0.94		0.0456585		
0.95		0.0383595		
0.96		0.0316603		
0.97		0.02551		
0.98		0.0198624		
0.99		0.0146749		
1		0.00990882		
1.01		0.00552849		
1.02		0.00150143		
1.03		-0.00220205		
1.04		-0.0056091		
1.05		-0.00874454		
1.06		-0.011631		
1.07		-0.0142892		
1.08		-0.016738		
1.09		-0.0189947		
1.1		-0.021075		
1.11		-0.0229933		
1.12		-0.0247627		
1.13		-0.0263951		
1.14		-0.0279017		
1.15		-0.0292922		
1.16		-0.0305759		
1.17		-0.0317611		
1.18		-0.0328555		
1.19		-0.0338659		
1.2		-0.0347988		
1.21		-0.03566		
1.22		-0.0364549		
1.23		-0.0371883		
1.24		-0.0378647		
1.25		-0.0384883		
1.26		-0.0390628		
1.27		-0.0395918		
1.28		-0.0400783		
1.29		-0.0405254		
1.3		-0.0409357		
1.31		-0.0413118		
1.32		-0.0416559		
1.33		-0.0419701		
1.34		-0.0422565		
1.35		-0.0425169		
1.36		-0.0427528		
1.37		-0.042966		
1.38		-0.0431579		
1.39		-0.0433297		
1.4		-0.0434829		
1.41		-0.0436184		
1.42		-0.0437374		
1.43		-0.043841		
1.44		-0.0439301		
1.45		-0.0440056		
1.46		-0.0440682		
1.47		-0.0441189		
1.48		-0.0441582		
1.49		-0.044187		
1.5		-0.0442058		
1.51		-0.0442152		
1.52		-0.0442159		
1.53		-0.0442084		
1.54		-0.0441931		
1.55		-0.0441705		
1.56		-0.0441412		
1.57		-0.0441054		
1.58		-0.0440637		
1.59		-0.0440164		
1.6		-0.0439638		
1.61		-0.0439064		
1.62		-0.0438443		
1.63		-0.043778		
1.64		-0.0437077		
1.65		-0.0436337		
1.66		-0.0435563		
1.67		-0.0434756		
1.68		-0.043392		
1.69		-0.0433056		
1.7		-0.0432167		
1.71		-0.0431255		
1.72		-0.0430321		
1.73		-0.0429368		
1.74		-0.0428397		
1.75		-0.0427409		
1.76		-0.0426406		
1.77		-0.0425391		
1.78		-0.0424363		
1.79		-0.0423325		
1.8		-0.0422278		
1.81		-0.0421223		
1.82		-0.042016		
1.83		-0.0419092		
1.84		-0.0418019		
1.85		-0.0416943		
1.86		-0.0415863		
1.87		-0.0414781		
1.88		-0.0413699		
1.89		-0.0412616		
1.9		-0.0411533		
1.91		-0.0410451		
1.92		-0.0409372		
1.93		-0.0408294		
1.94		-0.040722		
1.95		-0.040615		
1.96		-0.0405083		
1.97		-0.0404022		
1.98		-0.0402965		
1.99		-0.0401915		
2		-0.040087		
2.01		-0.0399832		
2.02		-0.0398801		
2.03		-0.0397778		
2.04		-0.0396762		
2.05		-0.0395754		
2.06		-0.0394755		
2.07		-0.0393764		
2.08		-0.0392782		
2.09		-0.0391809		
2.1		-0.0390846		
2.11		-0.0389892		
2.12		-0.0388949		
2.13		-0.0388015		
2.14		-0.0387092		
2.15		-0.0386179		
2.16		-0.0385276		
2.17		-0.0384385		
2.18		-0.0383504		
2.19		-0.0382635		
2.2		-0.0381776		
2.21		-0.0380929		
2.22		-0.0380093		
2.23		-0.0379269		
2.24		-0.0378456		
2.25		-0.0377655		
2.26		-0.0376866		
2.27		-0.0376088		
2.28		-0.0375322		
2.29		-0.0374568		
2.3		-0.0373826		
2.31		-0.0373096		
2.32		-0.0372378		
2.33		-0.0371671		
2.34		-0.0370977		
2.35		-0.0370295		
2.36		-0.0369625		
2.37		-0.0368966		
2.38		-0.036832		
2.39		-0.0367686		
2.4		-0.0367064		
2.41		-0.0366454		
2.42		-0.0365855		
2.43		-0.0365269		
2.44		-0.0364695		
2.45		-0.0364132		
2.46		-0.0363581		
2.47		-0.0363042		
2.48		-0.0362515		
2.49		-0.0362		
2.5		-0.0361496		
2.51		-0.0361004		
2.52		-0.0360524		
2.53		-0.0360055		
2.54		-0.0359598		
2.55		-0.0359152		
2.56		-0.0358718		
2.57		-0.0358295		
2.58		-0.0357883		
2.59		-0.0357482		
2.6		-0.0357093		
2.61		-0.0356715		
2.62		-0.0356347		
2.63		-0.0355991		
2.64		-0.0355646		
2.65		-0.0355311		
2.66		-0.0354987		
2.67		-0.0354674		
2.68		-0.0354372		
2.69		-0.035408		
2.7		-0.0353799		
2.71		-0.0353528		
2.72		-0.0353268		
2.73		-0.0353018		
2.74		-0.0352778		
2.75		-0.0352548		
2.76		-0.0352328		
2.77		-0.0352118		
2.78		-0.0351918		
2.79		-0.0351728		
2.8		-0.0351548		
2.81		-0.0351378		
2.82		-0.0351217		
2.83		-0.0351065		
2.84		-0.0350924		
2.85		-0.0350791		
2.86		-0.0350668		
2.87		-0.0350554		
2.88		-0.0350449		
2.89		-0.0350354		
2.9		-0.0350267		
2.91		-0.0350189		
2.92		-0.035012		
2.93		-0.035006		
2.94		-0.0350009		
2.95		-0.0349966		
2.96		-0.0349932		
2.97		-0.0349906		
2.98		-0.0349889		
2.99		-0.034988		
3		-0.034988		
3.01		-0.0349887		
3.02		-0.0349903		
3.03		-0.0349926		
3.04		-0.0349958		
3.05		-0.0349998		
3.06		-0.0350045		
3.07		-0.03501		
3.08		-0.0350163		
3.09		-0.0350233		
3.1		-0.0350311		
3.11		-0.0350397		
3.12		-0.0350489		
3.13		-0.035059		
3.14		-0.0350697		
3.15		-0.0350811		
3.16		-0.0350933		
3.17		-0.0351062		
3.18		-0.0351198		
3.19		-0.035134		
3.2		-0.035149		
3.21		-0.0351646		
3.22		-0.0351809		
3.23		-0.0351978		
3.24		-0.0352154		
3.25		-0.0352337		
3.26		-0.0352526		
3.27		-0.0352721		
3.28		-0.0352923		
3.29		-0.0353131		
3.3		-0.0353345		
3.31		-0.0353566		
3.32		-0.0353792		
3.33		-0.0354025		
3.34		-0.0354263		
3.35		-0.0354507		
3.36		-0.0354757		
3.37		-0.0355013		
3.38		-0.0355274		
3.39		-0.0355541		
3.4		-0.0355814		
3.41		-0.0356092		
3.42		-0.0356376		
3.43		-0.0356665		
3.44		-0.0356959		
3.45		-0.0357259		
3.46		-0.0357564		
3.47		-0.0357874		
3.48		-0.0358189		
3.49		-0.0358509		
3.5		-0.0358834		
3.51		-0.0359165		
3.52		-0.03595		
3.53		-0.035984		
3.54		-0.0360184		
3.55		-0.0360534		
3.56		-0.0360888		
3.57		-0.0361247		
3.58		-0.036161		
3.59		-0.0361978		
3.6		-0.0362351		
3.61		-0.0362728		
3.62		-0.0363109		
3.63		-0.0363494		
3.64		-0.0363884		
3.65		-0.0364278		
3.66		-0.0364677		
3.67		-0.0365079		
3.68		-0.0365485		
3.69		-0.0365896		
3.7		-0.0366311		
3.71		-0.0366729		
3.72		-0.0367152		
3.73		-0.0367578		
3.74		-0.0368008		
3.75		-0.0368442		
3.76		-0.036888		
3.77		-0.0369321		
3.78		-0.0369766		
3.79		-0.0370214		
3.8		-0.0370666		
3.81		-0.0371122		
3.82		-0.0371581		
3.83		-0.0372044		
3.84		-0.037251		
3.85		-0.0372979		
3.86		-0.0373452		
3.87		-0.0373928		
3.88		-0.0374407		
3.89		-0.0374889		
3.9		-0.0375374		
3.91		-0.0375863		
3.92		-0.0376355		
3.93		-0.0376849		
3.94		-0.0377347		
3.95		-0.0377848		
3.96		-0.0378351		
3.97		-0.0378858		
3.98		-0.0379367		
3.99		-0.0379879		
4		-0.0380394		
4.01		-0.0380912		
4.02		-0.0381432		
4.03		-0.0381955		
4.04		-0.0382481		
4.05		-0.038301		
4.06		-0.0383541		
4.07		-0.0384074		
4.08		-0.038461		
4.09		-0.0385148		
4.1		-0.0385689		
4.11		-0.0386233		
4.12		-0.0386778		
4.13		-0.0387326		
4.14		-0.0387877		
4.15		-0.0388429		
4.16		-0.0388984		
4.17		-0.0389542		
4.18		-0.0390101		
4.19		-0.0390662		
4.2		-0.0391226		
4.21		-0.0391792		
4.22		-0.039236		
4.23		-0.039293		
4.24		-0.0393502		
4.25		-0.0394075		
4.26		-0.0394651		
4.27		-0.0395229		
4.28		-0.0395809		
4.29		-0.039639		
4.3		-0.0396974		
4.31		-0.0397559		
4.32		-0.0398146		
4.33		-0.0398735		
4.34		-0.0399326		
4.35		-0.0399918		
4.36		-0.0400512		
4.37		-0.0401108		
4.38		-0.0401705		
4.39		-0.0402304		
4.4		-0.0402905		
4.41		-0.0403507		
4.42		-0.0404111		
4.43		-0.0404716		
4.44		-0.0405323		
4.45		-0.0405931		
4.46		-0.0406541		
4.47		-0.0407152		
4.48		-0.0407765		
4.49		-0.0408379		
4.5		-0.0408994		
4.51		-0.0409611		
4.52		-0.0410229		
4.53		-0.0410848		
4.54		-0.0411469		
4.55		-0.041209		
4.56		-0.0412713		
4.57		-0.0413338		
4.58		-0.0413963		
4.59		-0.041459		
4.6		-0.0415218		
4.61		-0.0415847		
4.62		-0.0416477		
4.63		-0.0417108		
4.64		-0.041774		
4.65		-0.0418373		
4.66		-0.0419008		
4.67		-0.0419643		
4.68		-0.0420279		
4.69		-0.0420917		
4.7		-0.0421555		
4.71		-0.0422194		
4.72		-0.0422834		
4.73		-0.0423476		
4.74		-0.0424117		
4.75		-0.042476		
4.76		-0.0425404		
4.77		-0.0426049		
4.78		-0.0426694		
4.79		-0.042734		
4.8		-0.0427987		
4.81		-0.0428635		
4.82		-0.0429283		
4.83		-0.0429932		
4.84		-0.0430582		
4.85		-0.0431233		
4.86		-0.0431884		
4.87		-0.0432536		
4.88		-0.0433189		
4.89		-0.0433842		
4.9		-0.0434496		
4.91		-0.0435151		
4.92		-0.0435806		
4.93		-0.0436461		
4.94		-0.0437118		
4.95		-0.0437775		
4.96		-0.0438432		
4.97		-0.043909		
4.98		-0.0439748		
4.99		-0.0440407		
5		-0.0441067		
5.01		-0.0441726		
5.02		-0.0442387		
5.03		-0.0443047		
5.04		-0.0443709		
5.05		-0.044437		
5.06		-0.0445032		
5.07		-0.0445695		
5.08		-0.0446357		
5.09		-0.044702		
5.1		-0.0447684		
5.11		-0.0448348		
5.12		-0.0449012		
5.13		-0.0449676		
5.14		-0.0450341		
5.15		-0.0451006		
5.16		-0.0451671		
5.17		-0.0452337		
5.18		-0.0453003		
5.19		-0.0453669		
5.2		-0.0454335		
5.21		-0.0455002		
5.22		-0.0455668		
5.23		-0.0456335		
5.24		-0.0457002		
5.25		-0.045767		
5.26		-0.0458337		
5.27		-0.0459005		
5.28		-0.0459672		
5.29		-0.046034		
5.3		-0.0461008		
5.31		-0.0461676		
5.32		-0.0462345		
5.33		-0.0463013		
5.34		-0.0463681		
5.35		-0.046435		
5.36		-0.0465018		
5.37		-0.0465687		
5.38		-0.0466355		
5.39		-0.0467024		
5.4		-0.0467693		
5.41		-0.0468361		
5.42		-0.046903		
5.43		-0.0469699		
5.44		-0.0470367		
5.45		-0.0471036		
5.46		-0.0471704		
5.47		-0.0472373		
5.48		-0.0473041		
5.49		-0.047371		
5.5		-0.0474378		
5.51		-0.0475046		
5.52		-0.0475715		
5.53		-0.0476383		
5.54		-0.0477051		
5.55		-0.0477719		
5.56		-0.0478386		
5.57		-0.0479054		
5.58		-0.0479722		
5.59		-0.0480389		
5.6		-0.0481056		
5.61		-0.0481723		
5.62		-0.048239		
5.63		-0.0483057		
5.64		-0.0483723		
5.65		-0.048439		
5.66		-0.0485056		
5.67		-0.0485722		
5.68		-0.0486388		
5.69		-0.0487053		
5.7		-0.0487719		
5.71		-0.0488384		
5.72		-0.0489048		
5.73		-0.0489713		
5.74		-0.0490377		
5.75		-0.0491042		
5.76		-0.0491705		
5.77		-0.0492369		
5.78		-0.0493032		
5.79		-0.0493695		
5.8		-0.0494358		
5.81		-0.049502		
5.82		-0.0495682		
5.83		-0.0496344		
5.84		-0.0497006		
5.85		-0.0497667		
5.86		-0.0498328		
5.87		-0.0498988		
5.88		-0.0499648		
5.89		-0.0500308		
5.9		-0.0500968		
5.91		-0.0501627		
5.92		-0.0502286		
5.93		-0.0502944		
5.94		-0.0503602		
5.95		-0.050426		
5.96		-0.0504917		
5.97		-0.0505574		
5.98		-0.050623		
5.99		-0.0506886		
6		-0.0507542		
6.01		-0.0508197		
6.02		-0.0508852		
6.03		-0.0509506		
6.04		-0.051016		
6.05		-0.0510814		
6.06		-0.0511467		
6.07		-0.0512119		
6.08		-0.0512772		
6.09		-0.0513423		
6.1		-0.0514075		
6.11		-0.0514726		
6.12		-0.0515376		
6.13		-0.0516026		
6.14		-0.0516675		
6.15		-0.0517324		
6.16		-0.0517973		
6.17		-0.0518621		
6.18		-0.0519268		
6.19		-0.0519915		
6.2		-0.0520562		
6.21		-0.0521208		
6.22		-0.0521853		
6.23		-0.0522498		
6.24		-0.0523143		
6.25		-0.0523787		
6.26		-0.052443		
6.27		-0.0525073		
6.28		-0.0525715		
6.29		-0.0526357		
6.3		-0.0526998		
6.31		-0.0527639		
6.32		-0.0528279		
6.33		-0.0528919		
6.34		-0.0529558		
6.35		-0.0530196		
6.36		-0.0530834		
6.37		-0.0531472		
6.38		-0.0532108		
6.39		-0.0532745		
6.4		-0.053338		
6.41		-0.0534015		
6.42		-0.053465		
6.43		-0.0535284		
6.44		-0.0535917		
6.45		-0.053655		
6.46		-0.0537182		
6.47		-0.0537813		
6.48		-0.0538444		
6.49		-0.0539075		
6.5		-0.0539704		
6.51		-0.0540333		
6.52		-0.0540962		
6.53		-0.054159		
6.54		-0.0542217		
6.55		-0.0542844		
6.56		-0.054347		
6.57		-0.0544095		
6.58		-0.054472		
6.59		-0.0545344		
6.6		-0.0545967		
6.61		-0.054659		
6.62		-0.0547212		
6.63		-0.0547834		
6.64		-0.0548454		
6.65		-0.0549075		
6.66		-0.0549694		
6.67		-0.0550313		
6.68		-0.0550931		
6.69		-0.0551549		
6.7		-0.0552166		
6.71		-0.0552782		
6.72		-0.0553398		
6.73		-0.0554012		
6.74		-0.0554627		
6.75		-0.055524		
6.76		-0.0555853		
6.77		-0.0556465		
6.78		-0.0557077		
6.79		-0.0557688		
6.8		-0.0558298		
6.81		-0.0558907		
6.82		-0.0559516		
6.83		-0.0560124		
6.84		-0.0560731		
6.85		-0.0561338		
6.86		-0.0561944		
6.87		-0.0562549		
6.88		-0.0563154		
6.89		-0.0563758		
6.9		-0.0564361		
6.91		-0.0564963		
6.92		-0.0565565		
6.93		-0.0566166		
6.94		-0.0566766		
6.95		-0.0567366		
6.96		-0.0567964		
6.97		-0.0568563		
6.98		-0.056916		
6.99		-0.0569757		
7		-0.0570353		
7.01		-0.0570948		
7.02		-0.0571542		
7.03		-0.0572136		
7.04		-0.0572729		
7.05		-0.0573321		
7.06		-0.0573913		
7.07		-0.0574504		
7.08		-0.0575094		
7.09		-0.0575683		
7.1		-0.0576272		
7.11		-0.057686		
7.12		-0.0577447		
7.13		-0.0578033		
7.14		-0.0578619		
7.15		-0.0579203		
7.16		-0.0579788		
7.17		-0.0580371		
7.18		-0.0580954		
7.19		-0.0581535		
7.2		-0.0582116		
7.21		-0.0582697		
7.22		-0.0583276		
7.23		-0.0583855		
7.24		-0.0584433		
7.25		-0.058501		
7.26		-0.0585587		
7.27		-0.0586163		
7.28		-0.0586738		
7.29		-0.0587312		
7.3		-0.0587885		
7.31		-0.0588458		
7.32		-0.058903		
7.33		-0.0589601		
7.34		-0.0590172		
7.35		-0.0590741		
7.36		-0.059131		
7.37		-0.0591878		
7.38		-0.0592445		
7.39		-0.0593012		
7.4		-0.0593577		
7.41		-0.0594142		
7.42		-0.0594707		
7.43		-0.059527		
7.44		-0.0595833		
7.45		-0.0596394		
7.46		-0.0596955		
7.47		-0.0597516		
7.48		-0.0598075		
7.49		-0.0598634		
7.5		-0.0599192		
7.51		-0.0599749		
7.52		-0.0600305		
7.53		-0.0600861		
7.54		-0.0601415		
7.55		-0.0601969		
7.56		-0.0602522		
7.57		-0.0603075		
7.58		-0.0603626		
7.59		-0.0604177		
7.6		-0.0604727		
7.61		-0.0605276		
7.62		-0.0605825		
7.63		-0.0606372		
7.64		-0.0606919		
7.65		-0.0607465		
7.66		-0.060801		
7.67		-0.0608555		
7.68		-0.0609098		
7.69		-0.0609641		
7.7		-0.0610183		
7.71		-0.0610724		
7.72		-0.0611265		
7.73		-0.0611804		
7.74		-0.0612343		
7.75		-0.0612881		
7.76		-0.0613418		
7.77		-0.0613955		
7.78		-0.061449		
7.79		-0.0615025		
7.8		-0.0615559		
7.81		-0.0616092		
7.82		-0.0616624		
7.83		-0.0617156		
7.84		-0.0617687		
7.85		-0.0618217		
7.86		-0.0618746		
7.87		-0.0619274		
7.88		-0.0619802		
7.89		-0.0620328		
7.9		-0.0620854		
7.91		-0.0621379		
7.92		-0.0621904		
7.93		-0.0622427		
7.94		-0.062295		
7.95		-0.0623472		
7.96		-0.0623993		
7.97		-0.0624513		
7.98		-0.0625033		
7.99		-0.0625551		
8		-0.0626069		
8.01		-0.0626586		
8.02		-0.0627102		
8.03		-0.0627618		
8.04		-0.0628132		
8.05		-0.0628646		
8.06		-0.0629159		
8.07		-0.0629671		
8.08		-0.0630182		
8.09		-0.0630693		
8.1		-0.0631203		
8.11		-0.0631712		
8.12		-0.063222		
8.13		-0.0632727		
8.14		-0.0633233		
8.15		-0.0633739		
8.16		-0.0634244		
8.17		-0.0634748		
8.18		-0.0635251		
8.19		-0.0635754		
8.2		-0.0636255		
8.21		-0.0636756		
8.22		-0.0637256		
8.23		-0.0637755		
8.24		-0.0638254		
8.25		-0.0638751		
8.26		-0.0639248		
8.27		-0.0639744		
8.28		-0.0640239		
8.29		-0.0640733		
8.3		-0.0641227		
8.31		-0.0641719		
8.32		-0.0642211		
8.33		-0.0642702		
8.34		-0.0643193		
8.35		-0.0643682		
8.36		-0.0644171		
8.37		-0.0644659		
8.38		-0.0645146		
8.39		-0.0645632		
8.4		-0.0646117		
8.41		-0.0646602		
8.42		-0.0647086		
8.43		-0.0647569		
8.44		-0.0648051		
8.45		-0.0648532		
8.46		-0.0649013		
8.47		-0.0649492		
8.48		-0.0649971		
8.49		-0.0650449		
8.5		-0.0650927		
8.51		-0.0651403		
8.52		-0.0651879		
8.53		-0.0652354		
8.54		-0.0652828		
8.55		-0.0653301		
8.56		-0.0653774		
8.57		-0.0654245		
8.58		-0.0654716		
8.59		-0.0655186		
8.6		-0.0655655		
8.61		-0.0656124		
8.62		-0.0656591		
8.63		-0.0657058		
8.64		-0.0657524		
8.65		-0.065799		
8.66		-0.0658454		
8.67		-0.0658918		
8.68		-0.065938		
8.69		-0.0659843		
8.7		-0.0660304		
8.71		-0.0660764		
8.72		-0.0661224		
8.73		-0.0661683		
8.74		-0.0662141		
8.75		-0.0662598		
8.76		-0.0663054		
8.77		-0.066351		
8.78		-0.0663965		
8.79		-0.0664419		
8.8		-0.0664872		
8.81		-0.0665324		
8.82		-0.0665776		
8.83		-0.0666227		
8.84		-0.0666677		
8.85		-0.0667126		
8.86		-0.0667575		
8.87		-0.0668022		
8.88		-0.0668469		
8.89		-0.0668915		
8.9		-0.066936		
8.91		-0.0669805		
8.92		-0.0670249		
8.93		-0.0670692		
8.94		-0.0671134		
8.95		-0.0671575		
8.96		-0.0672016		
8.97		-0.0672455		
8.98		-0.0672894		
8.99		-0.0673332		
9		-0.067377		
9.01		-0.0674206		
9.02		-0.0674642		
9.03		-0.0675077		
9.04		-0.0675511		
9.05		-0.0675945		
9.06		-0.0676378		
9.07		-0.0676809		
9.08		-0.0677241		
9.09		-0.0677671		
9.1		-0.06781		
9.11		-0.0678529		
9.12		-0.0678957		
9.13		-0.0679384		
9.14		-0.0679811		
9.15		-0.0680236		
9.16		-0.0680661		
9.17		-0.0681085		
9.18		-0.0681509		
9.19		-0.0681931		
9.2		-0.0682353		
9.21		-0.0682774		
9.22		-0.0683194		
9.23		-0.0683613		
9.24		-0.0684032		
9.25		-0.068445		
9.26		-0.0684867		
9.27		-0.0685283		
9.28		-0.0685699		
9.29		-0.0686114		
9.3		-0.0686528		
9.31		-0.0686941		
9.32		-0.0687353		
9.33		-0.0687765		
9.34		-0.0688176		
9.35		-0.0688586		
9.36		-0.0688996		
9.37		-0.0689404		
9.38		-0.0689812		
9.39		-0.0690219		
9.4		-0.0690626		
9.41		-0.0691031		
9.42		-0.0691436		
9.43		-0.069184		
9.44		-0.0692243		
9.45		-0.0692646		
9.46		-0.0693048		
9.47		-0.0693449		
9.48		-0.0693849		
9.49		-0.0694248		
9.5		-0.0694647		
9.51		-0.0695045		
9.52		-0.0695442		
9.53		-0.0695839		
9.54		-0.0696235		
9.55		-0.069663		
9.56		-0.0697024		
9.57		-0.0697417		
9.58		-0.069781		
9.59		-0.0698202		
9.6		-0.0698593		
9.61		-0.0698984		
9.62		-0.0699374		
9.63		-0.0699763		
9.64		-0.0700151		
9.65		-0.0700538		
9.66		-0.0700925		
9.67		-0.0701311		
9.68		-0.0701697		
9.69		-0.0702081		
9.7		-0.0702465		
9.71		-0.0702848		
9.72		-0.070323		
9.73		-0.0703612		
9.74		-0.0703993		
9.75		-0.0704373		
9.76		-0.0704752		
9.77		-0.0705131		
9.78		-0.0705509		
9.79		-0.0705886		
9.8		-0.0706262		
9.81		-0.0706638		
9.82		-0.0707013		
9.83		-0.0707387		
9.84		-0.0707761		
9.85		-0.0708134		
9.86		-0.0708506		
9.87		-0.0708877		
9.88		-0.0709248		
9.89		-0.0709617		
9.9		-0.0709987		
9.91		-0.0710355		
9.92		-0.0710723		
9.93		-0.071109		
9.94		-0.0711456		
9.95		-0.0711822		
9.96		-0.0712187		
9.97		-0.0712551		
9.98		-0.0712914		
9.99		-0.0713277		
10		-0.0713639		
10.01		-0.0714		
10.02		-0.0714361		
10.03		-0.071472		
10.04		-0.071508		
10.05		-0.0715438		
10.06		-0.0715796		
10.07		-0.0716153		
10.08		-0.0716509		
10.09		-0.0716865		
10.1		-0.0717219		
10.11		-0.0717574		
10.12		-0.0717927		
10.13		-0.071828		
10.14		-0.0718632		
10.15		-0.0718983		
10.16		-0.0719334		
10.17		-0.0719684		
10.18		-0.0720033		
10.19		-0.0720382		
10.2		-0.072073		
10.21		-0.0721077		
10.22		-0.0721423		
10.23		-0.0721769		
10.24		-0.0722114		
10.25		-0.0722459		
10.26		-0.0722802		
10.27		-0.0723145		
10.28		-0.0723488		
10.29		-0.0723829		
10.3		-0.072417		
10.31		-0.0724511		
10.32		-0.072485		
10.33		-0.0725189		
10.34		-0.0725527		
10.35		-0.0725865		
10.36		-0.0726202		
10.37		-0.0726538		
10.38		-0.0726873		
10.39		-0.0727208		
10.4		-0.0727542		
10.41		-0.0727876		
10.42		-0.0728209		
10.43		-0.0728541		
10.44		-0.0728872		
10.45		-0.0729203		
10.46		-0.0729533		
10.47		-0.0729863		
10.48		-0.0730191		
10.49		-0.073052		
10.5		-0.0730847		
10.51		-0.0731174		
10.52		-0.07315		
10.53		-0.0731825		
10.54		-0.073215		
10.55		-0.0732474		
10.56		-0.0732798		
10.57		-0.0733121		
10.58		-0.0733443		
10.59		-0.0733764		
10.6		-0.0734085		
10.61		-0.0734405		
10.62		-0.0734725		
10.63		-0.0735044		
10.64		-0.0735362		
10.65		-0.0735679		
10.66		-0.0735996		
10.67		-0.0736313		
10.68		-0.0736628		
10.69		-0.0736943		
10.7		-0.0737258		
10.71		-0.0737571		
10.72		-0.0737884		
10.73		-0.0738197		
10.74		-0.0738509		
10.75		-0.073882		
10.76		-0.073913		
10.77		-0.073944		
10.78		-0.0739749		
10.79		-0.0740058		
10.8		-0.0740366		
10.81		-0.0740673		
10.82		-0.074098		
10.83		-0.0741286		
10.84		-0.0741591		
10.85		-0.0741896		
10.86		-0.07422		
10.87		-0.0742504		
10.88		-0.0742807		
10.89		-0.0743109		
10.9		-0.0743411		
10.91		-0.0743712		
10.92		-0.0744012		
