tau [fm]		piNS [fm^-4]
0.25		1159.97
0.26		1057.81		
0.27		968.505		
0.28		889.99		
0.29		820.602		
0.3		758.987		
0.31		704.029		
0.32		654.804		
0.33		610.546		
0.34		570.608		
0.35		534.447		
0.36		501.601		
0.37		471.679		
0.38		444.343		
0.39		419.304		
0.4		396.312		
0.41		375.149		
0.42		355.627		
0.43		337.58		
0.44		320.862		
0.45		305.348		
0.46		290.923		
0.47		277.489		
0.48		264.956		
0.49		253.245		
0.5		242.287		
0.51		232.017		
0.52		222.38		
0.53		213.325		
0.54		204.805		
0.55		196.78		
0.56		189.211		
0.57		182.065		
0.58		175.311		
0.59		168.921		
0.6		162.869		
0.61		157.131		
0.62		151.687		
0.63		146.516		
0.64		141.601		
0.65		136.925		
0.66		132.473		
0.67		128.231		
0.68		124.185		
0.69		120.325		
0.7		116.638		
0.71		113.115		
0.72		109.745		
0.73		106.521		
0.74		103.434		
0.75		100.477		
0.76		97.6417		
0.77		94.922		
0.78		92.3119		
0.79		89.8055		
0.8		87.3973		
0.81		85.0824		
0.82		82.8561		
0.83		80.7138		
0.84		78.6515		
0.85		76.6651		
0.86		74.7511		
0.87		72.906		
0.88		71.1266		
0.89		69.4098		
0.9		67.7526		
0.91		66.1525		
0.92		64.6067		
0.93		63.113		
0.94		61.6689		
0.95		60.2725		
0.96		58.9215		
0.97		57.614		
0.98		56.3483		
0.99		55.1226		
1		53.9351		
1.01		52.7845		
1.02		51.6691		
1.03		50.5875		
1.04		49.5385		
1.05		48.5206		
1.06		47.5329		
1.07		46.5739		
1.08		45.6427		
1.09		44.7383		
1.1		43.8595		
1.11		43.0055		
1.12		42.1753		
1.13		41.368		
1.14		40.583		
1.15		39.8192		
1.16		39.0761		
1.17		38.3528		
1.18		37.6487		
1.19		36.9631		
1.2		36.2953		
1.21		35.6448		
1.22		35.011		
1.23		34.3934		
1.24		33.7913		
1.25		33.2043		
1.26		32.6318		
1.27		32.0735		
1.28		31.5288		
1.29		30.9973		
1.3		30.4787		
1.31		29.9724		
1.32		29.4782		
1.33		28.9956		
1.34		28.5242		
1.35		28.0639		
1.36		27.6141		
1.37		27.1746		
1.38		26.7451		
1.39		26.3252		
1.4		25.9148		
1.41		25.5135		
1.42		25.1211		
1.43		24.7373		
1.44		24.3618		
1.45		23.9945		
1.46		23.6351		
1.47		23.2833		
1.48		22.939		
1.49		22.6019		
1.5		22.272		
1.51		21.9488		
1.52		21.6324		
1.53		21.3224		
1.54		21.0188		
1.55		20.7213		
1.56		20.4299		
1.57		20.1442		
1.58		19.8643		
1.59		19.5899		
1.6		19.3209		
1.61		19.0571		
1.62		18.7985		
1.63		18.5448		
1.64		18.2961		
1.65		18.0521		
1.66		17.8127		
1.67		17.5778		
1.68		17.3473		
1.69		17.1211		
1.7		16.8992		
1.71		16.6813		
1.72		16.4674		
1.73		16.2574		
1.74		16.0512		
1.75		15.8487		
1.76		15.6499		
1.77		15.4546		
1.78		15.2628		
1.79		15.0743		
1.8		14.8892		
1.81		14.7073		
1.82		14.5285		
1.83		14.3529		
1.84		14.1802		
1.85		14.0105		
1.86		13.8437		
1.87		13.6797		
1.88		13.5185		
1.89		13.36		
1.9		13.2041		
1.91		13.0508		
1.92		12.9		
1.93		12.7517		
1.94		12.6058		
1.95		12.4623		
1.96		12.3211		
1.97		12.1821		
1.98		12.0454		
1.99		11.9109		
2		11.7785		
2.01		11.6482		
2.02		11.5199		
2.03		11.3937		
2.04		11.2694		
2.05		11.147		
2.06		11.0265		
2.07		10.9079		
2.08		10.7911		
2.09		10.676		
2.1		10.5627		
2.11		10.4511		
2.12		10.3412		
2.13		10.2329		
2.14		10.1262		
2.15		10.0211		
2.16		9.91758		
2.17		9.81554		
2.18		9.715		
2.19		9.61591		
2.2		9.51826		
2.21		9.42201		
2.22		9.32715		
2.23		9.23363		
2.24		9.14145		
2.25		9.05058		
2.26		8.96098		
2.27		8.87264		
2.28		8.78554		
2.29		8.69965		
2.3		8.61495		
2.31		8.53142		
2.32		8.44904		
2.33		8.36778		
2.34		8.28764		
2.35		8.20858		
2.36		8.13059		
2.37		8.05365		
2.38		7.97775		
2.39		7.90286		
2.4		7.82896		
2.41		7.75605		
2.42		7.6841		
2.43		7.61309		
2.44		7.54301		
2.45		7.47385		
2.46		7.40559		
2.47		7.33821		
2.48		7.2717		
2.49		7.20605		
2.5		7.14123		
2.51		7.07725		
2.52		7.01407		
2.53		6.95169		
2.54		6.8901		
2.55		6.82929		
2.56		6.76923		
2.57		6.70993		
2.58		6.65136		
2.59		6.59351		
2.6		6.53638		
2.61		6.47995		
2.62		6.42421		
2.63		6.36915		
2.64		6.31475		
2.65		6.26102		
2.66		6.20794		
2.67		6.15549		
2.68		6.10367		
2.69		6.05247		
2.7		6.00188		
2.71		5.95188		
2.72		5.90248		
2.73		5.85366		
2.74		5.80541		
2.75		5.75772		
2.76		5.71059		
2.77		5.66401		
2.78		5.61797		
2.79		5.57245		
2.8		5.52746		
2.81		5.48298		
2.82		5.43902		
2.83		5.39555		
2.84		5.35257		
2.85		5.31008		
2.86		5.26806		
2.87		5.22652		
2.88		5.18544		
2.89		5.14482		
2.9		5.10465		
2.91		5.06493		
2.92		5.02564		
2.93		4.98678		
2.94		4.94836		
2.95		4.91035		
2.96		4.87275		
2.97		4.83556		
2.98		4.79878		
2.99		4.76239		
3		4.72639		
3.01		4.69078		
3.02		4.65555		
3.03		4.62069		
3.04		4.5862		
3.05		4.55208		
3.06		4.51832		
3.07		4.48491		
3.08		4.45186		
3.09		4.41915		
3.1		4.38678		
3.11		4.35474		
3.12		4.32304		
3.13		4.29166		
3.14		4.26061		
3.15		4.22988		
3.16		4.19946		
3.17		4.16935		
3.18		4.13954		
3.19		4.11004		
3.2		4.08084		
3.21		4.05193		
3.22		4.02331		
3.23		3.99498		
3.24		3.96693		
3.25		3.93916		
3.26		3.91166		
3.27		3.88444		
3.28		3.85748		
3.29		3.8308		
3.3		3.80437		
3.31		3.7782		
3.32		3.75229		
3.33		3.72663		
3.34		3.70121		
3.35		3.67605		
3.36		3.65112		
3.37		3.62644		
3.38		3.60199		
3.39		3.57777		
3.4		3.55379		
3.41		3.53004		
3.42		3.50651		
3.43		3.4832		
3.44		3.46011		
3.45		3.43724		
3.46		3.41458		
3.47		3.39214		
3.48		3.3699		
3.49		3.34787		
3.5		3.32605		
3.51		3.30442		
3.52		3.283		
3.53		3.26177		
3.54		3.24074		
3.55		3.2199		
3.56		3.19925		
3.57		3.17879		
3.58		3.15851		
3.59		3.13842		
3.6		3.11851		
3.61		3.09878		
3.62		3.07922		
3.63		3.05984		
3.64		3.04063		
3.65		3.0216		
3.66		3.00273		
3.67		2.98403		
3.68		2.9655		
3.69		2.94712		
3.7		2.92891		
3.71		2.91086		
3.72		2.89297		
3.73		2.87523		
3.74		2.85765		
3.75		2.84022		
3.76		2.82294		
3.77		2.80581		
3.78		2.78883		
3.79		2.77199		
3.8		2.7553		
3.81		2.73875		
3.82		2.72234		
3.83		2.70607		
3.84		2.68994		
3.85		2.67395		
3.86		2.65809		
3.87		2.64236		
3.88		2.62677		
3.89		2.6113		
3.9		2.59597		
3.91		2.58076		
3.92		2.56568		
3.93		2.55073		
3.94		2.53589		
3.95		2.52118		
3.96		2.5066		
3.97		2.49213		
3.98		2.47778		
3.99		2.46355		
4		2.44943		
4.01		2.43543		
4.02		2.42154		
4.03		2.40776		
4.04		2.3941		
4.05		2.38054		
4.06		2.3671		
4.07		2.35376		
4.08		2.34053		
4.09		2.3274		
4.1		2.31438		
4.11		2.30146		
4.12		2.28865		
4.13		2.27593		
4.14		2.26332		
4.15		2.25081		
4.16		2.23839		
4.17		2.22607		
4.18		2.21385		
4.19		2.20172		
4.2		2.18969		
4.21		2.17775		
4.22		2.1659		
4.23		2.15414		
4.24		2.14248		
4.25		2.1309		
4.26		2.11941		
4.27		2.10801		
4.28		2.0967		
4.29		2.08548		
4.3		2.07434		
4.31		2.06328		
4.32		2.05231		
4.33		2.04142		
4.34		2.03061		
4.35		2.01988		
4.36		2.00924		
4.37		1.99867		
4.38		1.98818		
4.39		1.97777		
4.4		1.96744		
4.41		1.95719		
4.42		1.94701		
4.43		1.9369		
4.44		1.92688		
4.45		1.91692		
4.46		1.90704		
4.47		1.89723		
4.48		1.88749		
4.49		1.87782		
4.5		1.86822		
4.51		1.85869		
4.52		1.84924		
4.53		1.83985		
4.54		1.83052		
4.55		1.82127		
4.56		1.81208		
4.57		1.80296		
4.58		1.7939		
4.59		1.7849		
4.6		1.77597		
4.61		1.76711		
4.62		1.75831		
4.63		1.74957		
4.64		1.74089		
4.65		1.73227		
4.66		1.72371		
4.67		1.71521		
4.68		1.70678		
4.69		1.6984		
4.7		1.69008		
4.71		1.68182		
4.72		1.67361		
4.73		1.66546		
4.74		1.65737		
4.75		1.64933		
4.76		1.64135		
4.77		1.63343		
4.78		1.62556		
4.79		1.61774		
4.8		1.60998		
4.81		1.60226		
4.82		1.59461		
4.83		1.587		
4.84		1.57944		
4.85		1.57194		
4.86		1.56449		
4.87		1.55708		
4.88		1.54973		
4.89		1.54243		
4.9		1.53517		
4.91		1.52797		
4.92		1.52081		
4.93		1.5137		
4.94		1.50663		
4.95		1.49962		
4.96		1.49265		
4.97		1.48572		
4.98		1.47884		
4.99		1.47201		
5		1.46522		
5.01		1.45848		
5.02		1.45178		
5.03		1.44512		
5.04		1.43851		
5.05		1.43194		
5.06		1.42541		
5.07		1.41893		
5.08		1.41249		
5.09		1.40609		
5.1		1.39973		
5.11		1.39341		
5.12		1.38713		
5.13		1.38089		
5.14		1.37469		
5.15		1.36853		
5.16		1.36241		
5.17		1.35633		
5.18		1.35029		
5.19		1.34429		
5.2		1.33832		
5.21		1.33239		
5.22		1.3265		
5.23		1.32065		
5.24		1.31483		
5.25		1.30905		
5.26		1.30331		
5.27		1.2976		
5.28		1.29192		
5.29		1.28629		
5.3		1.28068		
5.31		1.27511		
5.32		1.26958		
5.33		1.26408		
5.34		1.25862		
5.35		1.25318		
5.36		1.24778		
5.37		1.24242		
5.38		1.23709		
5.39		1.23179		
5.4		1.22652		
5.41		1.22128		
5.42		1.21608		
5.43		1.2109		
5.44		1.20576		
5.45		1.20065		
5.46		1.19557		
5.47		1.19052		
5.48		1.18551		
5.49		1.18052		
5.5		1.17556		
5.51		1.17063		
5.52		1.16573		
5.53		1.16086		
5.54		1.15602		
5.55		1.15121		
5.56		1.14642		
5.57		1.14166		
5.58		1.13694		
5.59		1.13224		
5.6		1.12756		
5.61		1.12292		
5.62		1.1183		
5.63		1.11371		
5.64		1.10915		
5.65		1.10461		
5.66		1.1001		
5.67		1.09561		
5.68		1.09115		
5.69		1.08672		
5.7		1.08231		
5.71		1.07793		
5.72		1.07358		
5.73		1.06924		
5.74		1.06494		
5.75		1.06066		
5.76		1.0564		
5.77		1.05217		
5.78		1.04796		
5.79		1.04377		
5.8		1.03961		
5.81		1.03547		
5.82		1.03136		
5.83		1.02727		
5.84		1.0232		
5.85		1.01915		
5.86		1.01513		
5.87		1.01113		
5.88		1.00715		
5.89		1.0032		
5.9		0.999267		
5.91		0.995356		
5.92		0.991467		
5.93		0.9876		
5.94		0.983754		
5.95		0.979929		
5.96		0.976126		
5.97		0.972343		
5.98		0.968582		
5.99		0.964841		
6		0.96112		
6.01		0.95742		
6.02		0.953741		
6.03		0.950081		
6.04		0.946442		
6.05		0.942822		
6.06		0.939222		
6.07		0.935642		
6.08		0.932081		
6.09		0.928539		
6.1		0.925017		
6.11		0.921513		
6.12		0.918028		
6.13		0.914563		
6.14		0.911115		
6.15		0.907687		
6.16		0.904276		
6.17		0.900884		
6.18		0.89751		
6.19		0.894154		
6.2		0.890816		
6.21		0.887496		
6.22		0.884193		
6.23		0.880908		
6.24		0.87764		
6.25		0.87439		
6.26		0.871156		
6.27		0.86794		
6.28		0.86474		
6.29		0.861558		
6.3		0.858392		
6.31		0.855242		
6.32		0.852109		
6.33		0.848993		
6.34		0.845892		
6.35		0.842808		
6.36		0.83974		
6.37		0.836687		
6.38		0.833651		
6.39		0.83063		
6.4		0.827625		
6.41		0.824635		
6.42		0.82166		
6.43		0.818701		
6.44		0.815757		
6.45		0.812829		
6.46		0.809915		
6.47		0.807016		
6.48		0.804132		
6.49		0.801262		
6.5		0.798407		
6.51		0.795567		
6.52		0.792741		
6.53		0.789929		
6.54		0.787131		
6.55		0.784348		
6.56		0.781579		
6.57		0.778823		
6.58		0.776082		
6.59		0.773354		
6.6		0.770639		
6.61		0.767939		
6.62		0.765252		
6.63		0.762578		
6.64		0.759918		
6.65		0.75727		
6.66		0.754636		
6.67		0.752015		
6.68		0.749407		
6.69		0.746812		
6.7		0.74423		
6.71		0.74166		
6.72		0.739103		
6.73		0.736559		
6.74		0.734027		
6.75		0.731507		
6.76		0.729		
6.77		0.726505		
6.78		0.724022		
6.79		0.721552		
6.8		0.719093		
6.81		0.716646		
6.82		0.714212		
6.83		0.711789		
6.84		0.709377		
6.85		0.706977		
6.86		0.704589		
6.87		0.702213		
6.88		0.699848		
6.89		0.697494		
6.9		0.695151		
6.91		0.69282		
6.92		0.6905		
6.93		0.688191		
6.94		0.685892		
6.95		0.683605		
6.96		0.681329		
6.97		0.679063		
6.98		0.676809		
6.99		0.674565		
7		0.672331		
7.01		0.670108		
7.02		0.667896		
7.03		0.665694		
7.04		0.663502		
7.05		0.661321		
7.06		0.65915		
7.07		0.656989		
7.08		0.654838		
7.09		0.652697		
7.1		0.650566		
7.11		0.648445		
7.12		0.646334		
7.13		0.644233		
7.14		0.642141		
7.15		0.640059		
7.16		0.637987		
7.17		0.635924		
7.18		0.633871		
7.19		0.631828		
7.2		0.629793		
7.21		0.627768		
7.22		0.625753		
7.23		0.623746		
7.24		0.621749		
7.25		0.619761		
7.26		0.617782		
7.27		0.615812		
7.28		0.613851		
7.29		0.611898		
7.3		0.609955		
7.31		0.60802		
7.32		0.606095		
7.33		0.604178		
7.34		0.602269		
7.35		0.600369		
7.36		0.598478		
7.37		0.596595		
7.38		0.594721		
7.39		0.592855		
7.4		0.590998		
7.41		0.589148		
7.42		0.587307		
7.43		0.585474		
7.44		0.58365		
7.45		0.581833		
7.46		0.580025		
7.47		0.578224		
7.48		0.576432		
7.49		0.574647		
7.5		0.572871		
7.51		0.571102		
7.52		0.569341		
7.53		0.567588		
7.54		0.565842		
7.55		0.564104		
7.56		0.562374		
7.57		0.560651		
7.58		0.558936		
7.59		0.557228		
7.6		0.555528		
7.61		0.553835		
7.62		0.55215		
7.63		0.550472		
7.64		0.548801		
7.65		0.547137		
7.66		0.545481		
7.67		0.543831		
7.68		0.542189		
7.69		0.540554		
7.7		0.538926		
7.71		0.537305		
7.72		0.535691		
7.73		0.534084		
7.74		0.532483		
7.75		0.53089		
7.76		0.529303		
7.77		0.527723		
7.78		0.52615		
7.79		0.524584		
7.8		0.523024		
7.81		0.521471		
7.82		0.519924		
7.83		0.518384		
7.84		0.516851		
7.85		0.515324		
7.86		0.513803		
7.87		0.512289		
7.88		0.510781		
7.89		0.50928		
7.9		0.507785		
7.91		0.506296		
7.92		0.504813		
7.93		0.503337		
7.94		0.501866		
7.95		0.500402		
7.96		0.498944		
7.97		0.497492		
7.98		0.496046		
7.99		0.494606		
8		0.493172		
8.01		0.491744		
8.02		0.490322		
8.03		0.488906		
8.04		0.487495		
8.05		0.486091		
8.06		0.484692		
8.07		0.483299		
8.08		0.481911		
8.09		0.48053		
8.1		0.479154		
8.11		0.477783		
8.12		0.476418		
8.13		0.475059		
8.14		0.473705		
8.15		0.472357		
8.16		0.471015		
8.17		0.469677		
8.18		0.468345		
8.19		0.467019		
8.2		0.465698		
8.21		0.464382		
8.22		0.463072		
8.23		0.461767		
8.24		0.460467		
8.25		0.459172		
8.26		0.457883		
8.27		0.456599		
8.28		0.455319		
8.29		0.454045		
8.3		0.452776		
8.31		0.451513		
8.32		0.450254		
8.33		0.449		
8.34		0.447751		
8.35		0.446507		
8.36		0.445269		
8.37		0.444035		
8.38		0.442805		
8.39		0.441581		
8.4		0.440362		
8.41		0.439147		
8.42		0.437937		
8.43		0.436732		
8.44		0.435532		
8.45		0.434337		
8.46		0.433146		
8.47		0.431959		
8.48		0.430778		
8.49		0.429601		
8.5		0.428429		
8.51		0.427261		
8.52		0.426098		
8.53		0.424939		
8.54		0.423785		
8.55		0.422635		
8.56		0.42149		
8.57		0.420349		
8.58		0.419212		
8.59		0.41808		
8.6		0.416953		
8.61		0.415829		
8.62		0.41471		
8.63		0.413596		
8.64		0.412485		
8.65		0.411379		
8.66		0.410277		
8.67		0.40918		
8.68		0.408086		
8.69		0.406997		
8.7		0.405912		
8.71		0.404831		
8.72		0.403754		
8.73		0.402681		
8.74		0.401612		
8.75		0.400548		
8.76		0.399487		
8.77		0.398431		
8.78		0.397378		
8.79		0.396329		
8.8		0.395285		
8.81		0.394244		
8.82		0.393207		
8.83		0.392174		
8.84		0.391145		
8.85		0.39012		
8.86		0.389099		
8.87		0.388081		
8.88		0.387068		
8.89		0.386058		
8.9		0.385051		
8.91		0.384049		
8.92		0.38305		
8.93		0.382056		
8.94		0.381064		
8.95		0.380077		
8.96		0.379093		
8.97		0.378113		
8.98		0.377136		
8.99		0.376163		
9		0.375193		
9.01		0.374228		
9.02		0.373265		
9.03		0.372307		
9.04		0.371351		
9.05		0.3704		
9.06		0.369451		
9.07		0.368507		
9.08		0.367565		
9.09		0.366627		
9.1		0.365693		
9.11		0.364762		
9.12		0.363834		
9.13		0.36291		
9.14		0.361989		
9.15		0.361072		
9.16		0.360157		
9.17		0.359246		
9.18		0.358339		
9.19		0.357434		
9.2		0.356533		
9.21		0.355635		
9.22		0.354741		
9.23		0.35385		
9.24		0.352961		
9.25		0.352076		
9.26		0.351195		
9.27		0.350316		
9.28		0.34944		
9.29		0.348568		
9.3		0.347699		
9.31		0.346833		
9.32		0.34597		
9.33		0.34511		
9.34		0.344253		
9.35		0.343399		
9.36		0.342548		
9.37		0.3417		
9.38		0.340855		
9.39		0.340014		
9.4		0.339175		
9.41		0.338339		
9.42		0.337506		
9.43		0.336676		
9.44		0.335849		
9.45		0.335025		
9.46		0.334203		
9.47		0.333385		
9.48		0.332569		
9.49		0.331757		
9.5		0.330947		
9.51		0.33014		
9.52		0.329336		
9.53		0.328534		
9.54		0.327736		
9.55		0.32694		
9.56		0.326147		
9.57		0.325357		
9.58		0.324569		
9.59		0.323784		
9.6		0.323002		
9.61		0.322223		
9.62		0.321446		
9.63		0.320672		
9.64		0.319901		
9.65		0.319132		
9.66		0.318366		
9.67		0.317603		
9.68		0.316842		
9.69		0.316084		
9.7		0.315328		
9.71		0.314575		
9.72		0.313825		
9.73		0.313077		
9.74		0.312332		
9.75		0.311589		
9.76		0.310849		
9.77		0.310111		
9.78		0.309376		
9.79		0.308643		
9.8		0.307913		
9.81		0.307185		
9.82		0.30646		
9.83		0.305737		
9.84		0.305017		
9.85		0.304299		
9.86		0.303583		
9.87		0.30287		
9.88		0.30216		
9.89		0.301451		
9.9		0.300745		
9.91		0.300042		
9.92		0.299341		
9.93		0.298642		
9.94		0.297945		
9.95		0.297251		
9.96		0.296559		
9.97		0.29587		
9.98		0.295182		
9.99		0.294497		
10		0.293815		
10.01		0.293134		
10.02		0.292456		
10.03		0.29178		
10.04		0.291106		
10.05		0.290435		
10.06		0.289766		
10.07		0.289099		
10.08		0.288434		
10.09		0.287771		
10.1		0.287111		
10.11		0.286452		
10.12		0.285796		
10.13		0.285142		
10.14		0.284491		
10.15		0.283841		
10.16		0.283193		
10.17		0.282548		
10.18		0.281905		
10.19		0.281263		
10.2		0.280624		
10.21		0.279987		
10.22		0.279352		
10.23		0.278719		
10.24		0.278088		
10.25		0.27746		
10.26		0.276833		
10.27		0.276208		
10.28		0.275585		
10.29		0.274965		
10.3		0.274346		
10.31		0.273729		
10.32		0.273114		
10.33		0.272502		
10.34		0.271891		
10.35		0.271282		
10.36		0.270675		
10.37		0.27007		
10.38		0.269467		
10.39		0.268866		
10.4		0.268267		
10.41		0.26767		
10.42		0.267075		
10.43		0.266481		
10.44		0.26589		
10.45		0.2653		
10.46		0.264713		
10.47		0.264127		
10.48		0.263543		
10.49		0.262961		
10.5		0.26238		
10.51		0.261802		
10.52		0.261225		
10.53		0.26065		
10.54		0.260077		
10.55		0.259506		
10.56		0.258937		
10.57		0.258369		
10.58		0.257803		
10.59		0.257239		
10.6		0.256677		
10.61		0.256116		
10.62		0.255558		
10.63		0.255001		
10.64		0.254445		
10.65		0.253892		
10.66		0.25334		
10.67		0.25279		
10.68		0.252241		
10.69		0.251695		
10.7		0.25115		
10.71		0.250607		
10.72		0.250065		
10.73		0.249525		
10.74		0.248987		
10.75		0.24845		
10.76		0.247915		
10.77		0.247382		
10.78		0.246851		
10.79		0.246321		
10.8		0.245792		
10.81		0.245266		
10.82		0.24474		
10.83		0.244217		
10.84		0.243695		
10.85		0.243175		
10.86		0.242656		
10.87		0.242139		
10.88		0.241624		
10.89		0.24111		
10.9		0.240597		
10.91		0.240087		
10.92		0.239577		
10.93		0.23907		
10.94		0.238563		
10.95		0.238059		
10.96		0.237556		
10.97		0.237054		
10.98		0.236554		
10.99		0.236056		
11		0.235559		
11.01		0.235063		
11.02		0.234569		
11.03		0.234077		
11.04		0.233586		
11.05		0.233096		
11.06		0.232608		
11.07		0.232121		
11.08		0.231636		
11.09		0.231153		
11.1		0.23067		
11.11		0.23019		
11.12		0.22971		
11.13		0.229232		
11.14		0.228756		
11.15		0.228281		
11.16		0.227807		
11.17		0.227335		
11.18		0.226864		
11.19		0.226395		
11.2		0.225927		
11.21		0.22546		
11.22		0.224995		
11.23		0.224531		
11.24		0.224068		
11.25		0.223607		
11.26		0.223147		
11.27		0.222689		
11.28		0.222232		
11.29		0.221776		
11.3		0.221322		
11.31		0.220869		
11.32		0.220417		
11.33		0.219967		
11.34		0.219518		
11.35		0.21907		
11.36		0.218623		
11.37		0.218178		
11.38		0.217734		
11.39		0.217292		
11.4		0.216851		
11.41		0.216411		
11.42		0.215972		
11.43		0.215535		
11.44		0.215099		
11.45		0.214664		
11.46		0.21423		
11.47		0.213798		
11.48		0.213367		
11.49		0.212937		
11.5		0.212508		
11.51		0.212081		
11.52		0.211655		
11.53		0.21123		
11.54		0.210806		
11.55		0.210384		
11.56		0.209963		
11.57		0.209543		
11.58		0.209124		
11.59		0.208706		
11.6		0.20829		
11.61		0.207875		
11.62		0.207461		
11.63		0.207048		
11.64		0.206636		
11.65		0.206226		
11.66		0.205817		
11.67		0.205409		
11.68		0.205002		
11.69		0.204596		
11.7		0.204191		
11.71		0.203788		
11.72		0.203385		
11.73		0.202984		
11.74		0.202584		
11.75		0.202185		
11.76		0.201787		
11.77		0.201391		
11.78		0.200995		
11.79		0.200601		
11.8		0.200207		
11.81		0.199815		
11.82		0.199424		
11.83		0.199034		
11.84		0.198645		
11.85		0.198257		
11.86		0.197871		
11.87		0.197485		
11.88		0.1971		
11.89		0.196717		
11.9		0.196334		
11.91		0.195953		
11.92		0.195573		
11.93		0.195194		
11.94		0.194815		
11.95		0.194438		
11.96		0.194062		
11.97		0.193687		
11.98		0.193313		
11.99		0.19294		
12		0.192568		
12.01		0.192198		
12.02		0.191828		
12.03		0.191459		
12.04		0.191091		
12.05		0.190724		
12.06		0.190359		
12.07		0.189994		
12.08		0.18963		
12.09		0.189267		
12.1		0.188906		
12.11		0.188545		
12.12		0.188185		
12.13		0.187826		
12.14		0.187469		
12.15		0.187112		
12.16		0.186756		
12.17		0.186401		
12.18		0.186047		
12.19		0.185694		
12.2		0.185342		
12.21		0.184991		
12.22		0.184641		
12.23		0.184292		
12.24		0.183944		
12.25		0.183597		
12.26		0.183251		
12.27		0.182905		
12.28		0.182561		
12.29		0.182218		
12.3		0.181875		
12.31		0.181533		
12.32		0.181193		
12.33		0.180853		
12.34		0.180514		
12.35		0.180176		
