tau [fm]		pi [fm^-4]
0.25		0
0.26		14.0741		
0.27		25.8643		
0.28		35.7512		
0.29		44.0443		
0.3		50.9966		
0.31		56.8165		
0.32		61.6762		
0.33		65.7191		
0.34		69.0651		
0.35		71.8149		
0.36		74.0532		
0.37		75.8519		
0.38		77.2722		
0.39		78.366		
0.4		79.178		
0.41		79.7462		
0.42		80.1036		
0.43		80.2786		
0.44		80.2956		
0.45		80.1759		
0.46		79.938		
0.47		79.598		
0.48		79.1698		
0.49		78.6656		
0.5		78.0963		
0.51		77.471		
0.52		76.7981		
0.53		76.0847		
0.54		75.3373		
0.55		74.5612		
0.56		73.7616		
0.57		72.9426		
0.58		72.1081		
0.59		71.2614		
0.6		70.4055		
0.61		69.543		
0.62		68.6762		
0.63		67.8071		
0.64		66.9374		
0.65		66.0688		
0.66		65.2026		
0.67		64.3399		
0.68		63.482		
0.69		62.6296		
0.7		61.7835		
0.71		60.9445		
0.72		60.1132		
0.73		59.2901		
0.74		58.4756		
0.75		57.67		
0.76		56.8738		
0.77		56.0872		
0.78		55.3103		
0.79		54.5434		
0.8		53.7865		
0.81		53.0399		
0.82		52.3035		
0.83		51.5775		
0.84		50.8618		
0.85		50.1564		
0.86		49.4613		
0.87		48.7765		
0.88		48.102		
0.89		47.4376		
0.9		46.7834		
0.91		46.1392		
0.92		45.5049		
0.93		44.8804		
0.94		44.2657		
0.95		43.6607		
0.96		43.0651		
0.97		42.479		
0.98		41.9021		
0.99		41.3344		
1		40.7757		
1.01		40.2259		
1.02		39.6848		
1.03		39.1525		
1.04		38.6286		
1.05		38.1131		
1.06		37.6059		
1.07		37.1068		
1.08		36.6156		
1.09		36.1324		
1.1		35.6568		
1.11		35.1889		
1.12		34.7284		
1.13		34.2753		
1.14		33.8295		
1.15		33.3907		
1.16		32.9589		
1.17		32.534		
1.18		32.1158		
1.19		31.7042		
1.2		31.2992		
1.21		30.9005		
1.22		30.5081		
1.23		30.1219		
1.24		29.7418		
1.25		29.3676		
1.26		28.9993		
1.27		28.6368		
1.28		28.2798		
1.29		27.9285		
1.3		27.5825		
1.31		27.242		
1.32		26.9067		
1.33		26.5765		
1.34		26.2515		
1.35		25.9314		
1.36		25.6162		
1.37		25.3058		
1.38		25.0002		
1.39		24.6992		
1.4		24.4027		
1.41		24.1108		
1.42		23.8232		
1.43		23.54		
1.44		23.261		
1.45		22.9861		
1.46		22.7154		
1.47		22.4487		
1.48		22.186		
1.49		21.9271		
1.5		21.6721		
1.51		21.4208		
1.52		21.1733		
1.53		20.9293		
1.54		20.6889		
1.55		20.452		
1.56		20.2186		
1.57		19.9885		
1.58		19.7618		
1.59		19.5383		
1.6		19.318		
1.61		19.1009		
1.62		18.8869		
1.63		18.676		
1.64		18.4681		
1.65		18.2631		
1.66		18.061		
1.67		17.8617		
1.68		17.6653		
1.69		17.4716		
1.7		17.2806		
1.71		17.0923		
1.72		16.9066		
1.73		16.7235		
1.74		16.543		
1.75		16.3649		
1.76		16.1893		
1.77		16.016		
1.78		15.8452		
1.79		15.6767		
1.8		15.5105		
1.81		15.3465		
1.82		15.1848		
1.83		15.0253		
1.84		14.8679		
1.85		14.7126		
1.86		14.5594		
1.87		14.4083		
1.88		14.2591		
1.89		14.112		
1.9		13.9668		
1.91		13.8235		
1.92		13.6822		
1.93		13.5426		
1.94		13.405		
1.95		13.2691		
1.96		13.135		
1.97		13.0026		
1.98		12.872		
1.99		12.743		
2		12.6158		
2.01		12.4901		
2.02		12.3661		
2.03		12.2437		
2.04		12.1228		
2.05		12.0035		
2.06		11.8857		
2.07		11.7694		
2.08		11.6546		
2.09		11.5412		
2.1		11.4293		
2.11		11.3187		
2.12		11.2096		
2.13		11.1018		
2.14		10.9953		
2.15		10.8902		
2.16		10.7864		
2.17		10.6839		
2.18		10.5826		
2.19		10.4826		
2.2		10.3838		
2.21		10.2862		
2.22		10.1899		
2.23		10.0946		
2.24		10.0006		
2.25		9.90769		
2.26		9.81591		
2.27		9.72524		
2.28		9.63566		
2.29		9.54716		
2.3		9.45971		
2.31		9.37332		
2.32		9.28795		
2.33		9.2036		
2.34		9.12026		
2.35		9.0379		
2.36		8.95651		
2.37		8.87608		
2.38		8.7966		
2.39		8.71805		
2.4		8.64042		
2.41		8.56369		
2.42		8.48786		
2.43		8.41291		
2.44		8.33883		
2.45		8.2656		
2.46		8.19322		
2.47		8.12167		
2.48		8.05094		
2.49		7.98103		
2.5		7.91191		
2.51		7.84358		
2.52		7.77602		
2.53		7.70924		
2.54		7.6432		
2.55		7.57792		
2.56		7.51337		
2.57		7.44954		
2.58		7.38643		
2.59		7.32403		
2.6		7.26232		
2.61		7.2013		
2.62		7.14095		
2.63		7.08128		
2.64		7.02226		
2.65		6.96389		
2.66		6.90617		
2.67		6.84908		
2.68		6.79262		
2.69		6.73677		
2.7		6.68153		
2.71		6.62689		
2.72		6.57284		
2.73		6.51938		
2.74		6.4665		
2.75		6.41419		
2.76		6.36243		
2.77		6.31124		
2.78		6.26059		
2.79		6.21048		
2.8		6.16091		
2.81		6.11186		
2.82		6.06333		
2.83		6.01531		
2.84		5.96781		
2.85		5.9208		
2.86		5.87429		
2.87		5.82826		
2.88		5.78271		
2.89		5.73764		
2.9		5.69304		
2.91		5.64891		
2.92		5.60523		
2.93		5.562		
2.94		5.51922		
2.95		5.47687		
2.96		5.43497		
2.97		5.39349		
2.98		5.35243		
2.99		5.3118		
3		5.27158		
3.01		5.23176		
3.02		5.19235		
3.03		5.15334		
3.04		5.11473		
3.05		5.0765		
3.06		5.03865		
3.07		5.00119		
3.08		4.96409		
3.09		4.92737		
3.1		4.89102		
3.11		4.85502		
3.12		4.81938		
3.13		4.7841		
3.14		4.74916		
3.15		4.71457		
3.16		4.68031		
3.17		4.64639		
3.18		4.61281		
3.19		4.57955		
3.2		4.54661		
3.21		4.514		
3.22		4.4817		
3.23		4.44971		
3.24		4.41803		
3.25		4.38666		
3.26		4.35559		
3.27		4.32481		
3.28		4.29433		
3.29		4.26414		
3.3		4.23424		
3.31		4.20462		
3.32		4.17529		
3.33		4.14623		
3.34		4.11745		
3.35		4.08893		
3.36		4.06069		
3.37		4.03271		
3.38		4.00499		
3.39		3.97753		
3.4		3.95033		
3.41		3.92338		
3.42		3.89668		
3.43		3.87022		
3.44		3.84401		
3.45		3.81805		
3.46		3.79232		
3.47		3.76683		
3.48		3.74157		
3.49		3.71654		
3.5		3.69174		
3.51		3.66717		
3.52		3.64282		
3.53		3.61869		
3.54		3.59477		
3.55		3.57108		
3.56		3.5476		
3.57		3.52432		
3.58		3.50126		
3.59		3.4784		
3.6		3.45575		
3.61		3.4333		
3.62		3.41105		
3.63		3.389		
3.64		3.36714		
3.65		3.34547		
3.66		3.324		
3.67		3.30271		
3.68		3.28162		
3.69		3.2607		
3.7		3.23997		
3.71		3.21942		
3.72		3.19905		
3.73		3.17885		
3.74		3.15884		
3.75		3.13899		
3.76		3.11932		
3.77		3.09981		
3.78		3.08047		
3.79		3.0613		
3.8		3.04229		
3.81		3.02345		
3.82		3.00476		
3.83		2.98624		
3.84		2.96787		
3.85		2.94966		
3.86		2.9316		
3.87		2.91369		
3.88		2.89594		
3.89		2.87833		
3.9		2.86087		
3.91		2.84356		
3.92		2.82639		
3.93		2.80936		
3.94		2.79248		
3.95		2.77574		
3.96		2.75913		
3.97		2.74266		
3.98		2.72633		
3.99		2.71013		
4		2.69407		
4.01		2.67814		
4.02		2.66233		
4.03		2.64666		
4.04		2.63111		
4.05		2.61569		
4.06		2.6004		
4.07		2.58523		
4.08		2.57018		
4.09		2.55525		
4.1		2.54045		
4.11		2.52576		
4.12		2.51119		
4.13		2.49674		
4.14		2.4824		
4.15		2.46817		
4.16		2.45406		
4.17		2.44007		
4.18		2.42618		
4.19		2.4124		
4.2		2.39873		
4.21		2.38517		
4.22		2.37171		
4.23		2.35836		
4.24		2.34512		
4.25		2.33197		
4.26		2.31893		
4.27		2.306		
4.28		2.29316		
4.29		2.28042		
4.3		2.26778		
4.31		2.25524		
4.32		2.24279		
4.33		2.23044		
4.34		2.21818		
4.35		2.20602		
4.36		2.19395		
4.37		2.18197		
4.38		2.17009		
4.39		2.15829		
4.4		2.14659		
4.41		2.13497		
4.42		2.12344		
4.43		2.112		
4.44		2.10064		
4.45		2.08937		
4.46		2.07818		
4.47		2.06707		
4.48		2.05605		
4.49		2.04511		
4.5		2.03426		
4.51		2.02348		
4.52		2.01278		
4.53		2.00216		
4.54		1.99162		
4.55		1.98116		
4.56		1.97077		
4.57		1.96046		
4.58		1.95023		
4.59		1.94007		
4.6		1.92998		
4.61		1.91997		
4.62		1.91003		
4.63		1.90016		
4.64		1.89037		
4.65		1.88064		
4.66		1.87099		
4.67		1.8614		
4.68		1.85188		
4.69		1.84243		
4.7		1.83305		
4.71		1.82374		
4.72		1.81449		
4.73		1.80531		
4.74		1.79619		
4.75		1.78713		
4.76		1.77815		
4.77		1.76922		
4.78		1.76036		
4.79		1.75156		
4.8		1.74282		
4.81		1.73414		
4.82		1.72552		
4.83		1.71697		
4.84		1.70847		
4.85		1.70003		
4.86		1.69165		
4.87		1.68333		
4.88		1.67506		
4.89		1.66686		
4.9		1.65871		
4.91		1.65061		
4.92		1.64257		
4.93		1.63459		
4.94		1.62666		
4.95		1.61878		
4.96		1.61096		
4.97		1.60319		
4.98		1.59547		
4.99		1.58781		
5		1.5802		
5.01		1.57264		
5.02		1.56513		
5.03		1.55767		
5.04		1.55026		
5.05		1.5429		
5.06		1.53558		
5.07		1.52832		
5.08		1.52111		
5.09		1.51394		
5.1		1.50682		
5.11		1.49975		
5.12		1.49273		
5.13		1.48575		
5.14		1.47882		
5.15		1.47193		
5.16		1.46509		
5.17		1.45829		
5.18		1.45154		
5.19		1.44483		
5.2		1.43817		
5.21		1.43155		
5.22		1.42497		
5.23		1.41843		
5.24		1.41194		
5.25		1.40549		
5.26		1.39908		
5.27		1.39271		
5.28		1.38638		
5.29		1.38009		
5.3		1.37384		
5.31		1.36764		
5.32		1.36147		
5.33		1.35534		
5.34		1.34925		
5.35		1.3432		
5.36		1.33719		
5.37		1.33121		
5.38		1.32528		
5.39		1.31938		
5.4		1.31351		
5.41		1.30769		
5.42		1.3019		
5.43		1.29615		
5.44		1.29043		
5.45		1.28475		
5.46		1.2791		
5.47		1.27349		
5.48		1.26791		
5.49		1.26237		
5.5		1.25686		
5.51		1.25139		
5.52		1.24595		
5.53		1.24054		
5.54		1.23517		
5.55		1.22983		
5.56		1.22452		
5.57		1.21924		
5.58		1.214		
5.59		1.20879		
5.6		1.20361		
5.61		1.19846		
5.62		1.19334		
5.63		1.18826		
5.64		1.1832		
5.65		1.17817		
5.66		1.17318		
5.67		1.16821		
5.68		1.16328		
5.69		1.15837		
5.7		1.15349		
5.71		1.14865		
5.72		1.14383		
5.73		1.13904		
5.74		1.13427		
5.75		1.12954		
5.76		1.12483		
5.77		1.12016		
5.78		1.1155		
5.79		1.11088		
5.8		1.10628		
5.81		1.10172		
5.82		1.09717		
5.83		1.09266		
5.84		1.08817		
5.85		1.0837		
5.86		1.07926		
5.87		1.07485		
5.88		1.07047		
5.89		1.0661		
5.9		1.06177		
5.91		1.05746		
5.92		1.05317		
5.93		1.04891		
5.94		1.04467		
5.95		1.04046		
5.96		1.03627		
5.97		1.0321		
5.98		1.02796		
5.99		1.02385		
6		1.01975		
6.01		1.01568		
6.02		1.01163		
6.03		1.00761		
6.04		1.0036		
6.05		0.999622		
6.06		0.995665		
6.07		0.991729		
6.08		0.987815		
6.09		0.983923		
6.1		0.980053		
6.11		0.976205		
6.12		0.972378		
6.13		0.968572		
6.14		0.964787		
6.15		0.961024		
6.16		0.957281		
6.17		0.953559		
6.18		0.949857		
6.19		0.946175		
6.2		0.942514		
6.21		0.938873		
6.22		0.935252		
6.23		0.931651		
6.24		0.928069		
6.25		0.924507		
6.26		0.920964		
6.27		0.917441		
6.28		0.913936		
6.29		0.910451		
6.3		0.906984		
6.31		0.903537		
6.32		0.900107		
6.33		0.896696		
6.34		0.893304		
6.35		0.88993		
6.36		0.886573		
6.37		0.883235		
6.38		0.879915		
6.39		0.876612		
6.4		0.873327		
6.41		0.870059		
6.42		0.866809		
6.43		0.863576		
6.44		0.86036		
6.45		0.857161		
6.46		0.853979		
6.47		0.850813		
6.48		0.847664		
6.49		0.844532		
6.5		0.841416		
6.51		0.838317		
6.52		0.835234		
6.53		0.832166		
6.54		0.829115		
6.55		0.82608		
6.56		0.82306		
6.57		0.820056		
6.58		0.817068		
6.59		0.814095		
6.6		0.811138		
6.61		0.808195		
6.62		0.805268		
6.63		0.802356		
6.64		0.799459		
6.65		0.796577		
6.66		0.793709		
6.67		0.790856		
6.68		0.788018		
6.69		0.785194		
6.7		0.782384		
6.71		0.779589		
6.72		0.776808		
6.73		0.774041		
6.74		0.771288		
6.75		0.768549		
6.76		0.765823		
6.77		0.763112		
6.78		0.760414		
6.79		0.757729		
6.8		0.755058		
6.81		0.752401		
6.82		0.749756		
6.83		0.747125		
6.84		0.744507		
6.85		0.741902		
6.86		0.73931		
6.87		0.736731		
6.88		0.734165		
6.89		0.731611		
6.9		0.72907		
6.91		0.726541		
6.92		0.724025		
6.93		0.721521		
6.94		0.71903		
6.95		0.71655		
6.96		0.714083		
6.97		0.711628		
6.98		0.709185		
6.99		0.706754		
7		0.704335		
7.01		0.701927		
7.02		0.699531		
7.03		0.697147		
7.04		0.694774		
7.05		0.692413		
7.06		0.690063		
7.07		0.687725		
7.08		0.685397		
7.09		0.683081		
7.1		0.680776		
7.11		0.678482		
7.12		0.6762		
7.13		0.673928		
7.14		0.671666		
7.15		0.669416		
7.16		0.667176		
7.17		0.664947		
7.18		0.662729		
7.19		0.660521		
7.2		0.658323		
7.21		0.656136		
7.22		0.653959		
7.23		0.651793		
7.24		0.649636		
7.25		0.64749		
7.26		0.645354		
7.27		0.643228		
7.28		0.641112		
7.29		0.639005		
7.3		0.636909		
7.31		0.634822		
7.32		0.632745		
7.33		0.630678		
7.34		0.62862		
7.35		0.626572		
7.36		0.624533		
7.37		0.622504		
7.38		0.620484		
7.39		0.618474		
7.4		0.616472		
7.41		0.61448		
7.42		0.612497		
7.43		0.610523		
7.44		0.608558		
7.45		0.606602		
7.46		0.604655		
7.47		0.602717		
7.48		0.600788		
7.49		0.598868		
7.5		0.596956		
7.51		0.595053		
7.52		0.593158		
7.53		0.591273		
7.54		0.589395		
7.55		0.587526		
7.56		0.585666		
7.57		0.583814		
7.58		0.58197		
7.59		0.580135		
7.6		0.578307		
7.61		0.576488		
7.62		0.574677		
7.63		0.572874		
7.64		0.57108		
7.65		0.569293		
7.66		0.567514		
7.67		0.565743		
7.68		0.56398		
7.69		0.562224		
7.7		0.560477		
7.71		0.558737		
7.72		0.557005		
7.73		0.55528		
7.74		0.553563		
7.75		0.551854		
7.76		0.550152		
7.77		0.548458		
7.78		0.546771		
7.79		0.545091		
7.8		0.543419		
7.81		0.541754		
7.82		0.540096		
7.83		0.538445		
7.84		0.536802		
7.85		0.535166		
7.86		0.533537		
7.87		0.531914		
7.88		0.530299		
7.89		0.528691		
7.9		0.52709		
7.91		0.525496		
7.92		0.523908		
7.93		0.522328		
7.94		0.520754		
7.95		0.519187		
7.96		0.517626		
7.97		0.516073		
7.98		0.514525		
7.99		0.512985		
8		0.511451		
8.01		0.509924		
8.02		0.508403		
8.03		0.506888		
8.04		0.50538		
8.05		0.503878		
8.06		0.502383		
8.07		0.500894		
8.08		0.499411		
8.09		0.497935		
8.1		0.496464		
8.11		0.495		
8.12		0.493542		
8.13		0.49209		
8.14		0.490644		
8.15		0.489205		
8.16		0.487771		
8.17		0.486343		
8.18		0.484921		
8.19		0.483505		
8.2		0.482095		
8.21		0.480691		
8.22		0.479292		
8.23		0.4779		
8.24		0.476513		
8.25		0.475132		
8.26		0.473756		
8.27		0.472387		
8.28		0.471022		
8.29		0.469664		
8.3		0.468311		
8.31		0.466963		
8.32		0.465621		
8.33		0.464285		
8.34		0.462954		
8.35		0.461628		
8.36		0.460308		
8.37		0.458994		
8.38		0.457684		
8.39		0.45638		
8.4		0.455081		
8.41		0.453787		
8.42		0.452499		
8.43		0.451216		
8.44		0.449938		
8.45		0.448665		
8.46		0.447397		
8.47		0.446135		
8.48		0.444877		
8.49		0.443625		
8.5		0.442377		
8.51		0.441135		
8.52		0.439897		
8.53		0.438664		
8.54		0.437437		
8.55		0.436214		
8.56		0.434996		
8.57		0.433783		
8.58		0.432575		
8.59		0.431371		
8.6		0.430172		
8.61		0.428978		
8.62		0.427789		
8.63		0.426604		
8.64		0.425424		
8.65		0.424249		
8.66		0.423078		
8.67		0.421912		
8.68		0.420751		
8.69		0.419594		
8.7		0.418441		
8.71		0.417294		
8.72		0.41615		
8.73		0.415011		
8.74		0.413877		
8.75		0.412746		
8.76		0.411621		
8.77		0.410499		
8.78		0.409382		
8.79		0.408269		
8.8		0.407161		
8.81		0.406057		
8.82		0.404957		
8.83		0.403861		
8.84		0.40277		
8.85		0.401683		
8.86		0.4006		
8.87		0.399521		
8.88		0.398446		
8.89		0.397375		
8.9		0.396309		
8.91		0.395246		
8.92		0.394188		
8.93		0.393134		
8.94		0.392083		
8.95		0.391037		
8.96		0.389994		
8.97		0.388956		
8.98		0.387921		
8.99		0.386891		
9		0.385864		
9.01		0.384841		
9.02		0.383822		
9.03		0.382807		
9.04		0.381796		
9.05		0.380788		
9.06		0.379785		
9.07		0.378785		
9.08		0.377788		
9.09		0.376796		
9.1		0.375807		
9.11		0.374822		
9.12		0.373841		
9.13		0.372863		
9.14		0.371889		
9.15		0.370918		
9.16		0.369951		
9.17		0.368988		
9.18		0.368028		
9.19		0.367072		
9.2		0.36612		
9.21		0.365171		
9.22		0.364225		
9.23		0.363283		
9.24		0.362344		
9.25		0.361409		
9.26		0.360477		
9.27		0.359549		
9.28		0.358624		
9.29		0.357702		
9.3		0.356784		
9.31		0.355869		
9.32		0.354958		
9.33		0.354049		
9.34		0.353145		
9.35		0.352243		
9.36		0.351345		
9.37		0.35045		
9.38		0.349558		
9.39		0.348669		
9.4		0.347784		
9.41		0.346902		
9.42		0.346023		
9.43		0.345147		
9.44		0.344274		
9.45		0.343405		
9.46		0.342539		
9.47		0.341675		
9.48		0.340815		
9.49		0.339958		
9.5		0.339104		
9.51		0.338253		
9.52		0.337405		
9.53		0.33656		
9.54		0.335718		
9.55		0.334879		
9.56		0.334044		
9.57		0.333211		
9.58		0.332381		
9.59		0.331554		
9.6		0.33073		
9.61		0.329908		
9.62		0.32909		
9.63		0.328275		
9.64		0.327462		
9.65		0.326653		
9.66		0.325846		
9.67		0.325042		
9.68		0.324241		
9.69		0.323442		
9.7		0.322647		
9.71		0.321854		
9.72		0.321064		
9.73		0.320277		
9.74		0.319492		
9.75		0.318711		
9.76		0.317932		
9.77		0.317155		
9.78		0.316382		
9.79		0.315611		
9.8		0.314843		
9.81		0.314077		
9.82		0.313314		
9.83		0.312554		
9.84		0.311796		
9.85		0.311041		
9.86		0.310289		
9.87		0.309539		
9.88		0.308792		
9.89		0.308047		
9.9		0.307305		
9.91		0.306565		
9.92		0.305828		
9.93		0.305094		
9.94		0.304362		
9.95		0.303632		
9.96		0.302905		
9.97		0.302181		
9.98		0.301459		
9.99		0.300739		
10		0.300022		
10.01		0.299307		
10.02		0.298595		
10.03		0.297885		
10.04		0.297178		
10.05		0.296473		
10.06		0.29577		
10.07		0.295069		
10.08		0.294371		
10.09		0.293676		
10.1		0.292983		
10.11		0.292292		
10.12		0.291603		
10.13		0.290917		
10.14		0.290233		
10.15		0.289551		
10.16		0.288872		
10.17		0.288194		
10.18		0.287519		
10.19		0.286847		
10.2		0.286176		
10.21		0.285508		
10.22		0.284842		
10.23		0.284179		
10.24		0.283517		
10.25		0.282858		
10.26		0.2822		
10.27		0.281545		
10.28		0.280893		
10.29		0.280242		
10.3		0.279593		
10.31		0.278947		
10.32		0.278303		
10.33		0.277661		
10.34		0.277021		
10.35		0.276383		
10.36		0.275747		
10.37		0.275113		
10.38		0.274482		
10.39		0.273852		
10.4		0.273224		
10.41		0.272599		
10.42		0.271975		
10.43		0.271354		
10.44		0.270735		
10.45		0.270117		
10.46		0.269502		
10.47		0.268888		
10.48		0.268277		
10.49		0.267668		
10.5		0.26706		
10.51		0.266455		
10.52		0.265851		
10.53		0.26525		
10.54		0.26465		
10.55		0.264052		
10.56		0.263457		
10.57		0.262863		
10.58		0.262271		
10.59		0.261681		
10.6		0.261093		
10.61		0.260506		
10.62		0.259922		
10.63		0.259339		
10.64		0.258759		
10.65		0.25818		
10.66		0.257603		
10.67		0.257028		
10.68		0.256455		
10.69		0.255883		
10.7		0.255313		
10.71		0.254746		
10.72		0.254179		
10.73		0.253615		
10.74		0.253053		
10.75		0.252492		
10.76		0.251933		
10.77		0.251376		
10.78		0.250821		
10.79		0.250267		
10.8		0.249715		
10.81		0.249165		
10.82		0.248616		
10.83		0.24807		
10.84		0.247525		
10.85		0.246981		
10.86		0.24644		
10.87		0.2459		
10.88		0.245361		
10.89		0.244825		
10.9		0.24429		
10.91		0.243757		
10.92		0.243225		
10.93		0.242695		
10.94		0.242167		
10.95		0.24164		
10.96		0.241116		
10.97		0.240592		
10.98		0.24007		
10.99		0.23955		
11		0.239032		
11.01		0.238515		
11.02		0.238		
11.03		0.237486		
11.04		0.236974		
11.05		0.236463		
11.06		0.235954		
11.07		0.235447		
11.08		0.234941		
11.09		0.234436		
11.1		0.233934		
11.11		0.233432		
11.12		0.232933		
11.13		0.232434		
11.14		0.231938		
11.15		0.231442		
11.16		0.230949		
11.17		0.230457		
11.18		0.229966		
11.19		0.229477		
11.2		0.228989		
11.21		0.228503		
11.22		0.228018		
11.23		0.227535		
11.24		0.227053		
11.25		0.226573		
11.26		0.226094		
11.27		0.225616		
11.28		0.22514		
11.29		0.224666		
11.3		0.224192		
11.31		0.223721		
11.32		0.22325		
11.33		0.222781		
11.34		0.222314		
11.35		0.221848		
11.36		0.221383		
11.37		0.22092		
11.38		0.220458		
11.39		0.219997		
11.4		0.219538		
11.41		0.21908		
11.42		0.218623		
11.43		0.218168		
11.44		0.217715		
11.45		0.217262		
11.46		0.216811		
11.47		0.216361		
11.48		0.215913		
11.49		0.215466		
11.5		0.21502		
11.51		0.214576		
11.52		0.214132		
11.53		0.213691		
11.54		0.21325		
11.55		0.212811		
11.56		0.212373		
11.57		0.211936		
11.58		0.211501		
11.59		0.211067		
11.6		0.210634		
11.61		0.210202		
11.62		0.209772		
11.63		0.209343		
11.64		0.208915		
11.65		0.208488		
11.66		0.208063		
11.67		0.207639		
11.68		0.207216		
11.69		0.206794		
11.7		0.206374		
11.71		0.205955		
11.72		0.205537		
11.73		0.20512		
11.74		0.204705		
11.75		0.20429		
11.76		0.203877		
11.77		0.203465		
11.78		0.203054		
11.79		0.202645		
11.8		0.202236		
11.81		0.201829		
11.82		0.201423		
11.83		0.201018		
11.84		0.200614		
11.85		0.200212		
11.86		0.19981		
11.87		0.19941		
11.88		0.199011		
11.89		0.198613		
11.9		0.198216		
11.91		0.19782		
11.92		0.197426		
11.93		0.197032		
11.94		0.19664		
11.95		0.196248		
11.96		0.195858		
11.97		0.195469		
11.98		0.195081		
11.99		0.194694		
12		0.194309		
12.01		0.193924		
12.02		0.19354		
12.03		0.193158		
12.04		0.192777		
12.05		0.192396		
12.06		0.192017		
12.07		0.191639		
12.08		0.191262		
12.09		0.190885		
12.1		0.19051		
12.11		0.190136		
12.12		0.189764		
12.13		0.189392		
12.14		0.189021		
12.15		0.188651		
12.16		0.188282		
12.17		0.187914		
12.18		0.187548		
12.19		0.187182		
12.2		0.186817		
12.21		0.186454		
12.22		0.186091		
12.23		0.185729		
12.24		0.185369		
12.25		0.185009		
12.26		0.18465		
12.27		0.184293		
12.28		0.183936		
12.29		0.18358		
12.3		0.183226		
12.31		0.182872		
12.32		0.182519		
12.33		0.182167		
12.34		0.181816		
12.35		0.181467		
12.36		0.181118		
