tau [fm]		pi [fm^-4]
0.25		342.767
0.26		327.793		
0.27		313.936		
0.28		301.076		
0.29		289.106		
0.3		277.939		
0.31		267.495		
0.32		257.706		
0.33		248.512		
0.34		239.861		
0.35		231.705		
0.36		224.005		
0.37		216.722		
0.38		209.824		
0.39		203.281		
0.4		197.067		
0.41		191.158		
0.42		185.532		
0.43		180.17		
0.44		175.053		
0.45		170.166		
0.46		165.494		
0.47		161.023		
0.48		156.74		
0.49		152.635		
0.5		148.696		
0.51		144.915		
0.52		141.281		
0.53		137.788		
0.54		134.426		
0.55		131.19		
0.56		128.072		
0.57		125.066		
0.58		122.167		
0.59		119.369		
0.6		116.667		
0.61		114.057		
0.62		111.534		
0.63		109.095		
0.64		106.734		
0.65		104.449		
0.66		102.237		
0.67		100.093		
0.68		98.016		
0.69		96.0019		
0.7		94.0484		
0.71		92.153		
0.72		90.3132		
0.73		88.5269		
0.74		86.7918		
0.75		85.1059		
0.76		83.4674		
0.77		81.8744		
0.78		80.3251		
0.79		78.818		
0.8		77.3514		
0.81		75.9239		
0.82		74.534		
0.83		73.1804		
0.84		71.8618		
0.85		70.577		
0.86		69.3249		
0.87		68.1042		
0.88		66.9139		
0.89		65.753		
0.9		64.6206		
0.91		63.5156		
0.92		62.4372		
0.93		61.3845		
0.94		60.3568		
0.95		59.3531		
0.96		58.3729		
0.97		57.4152		
0.98		56.4795		
0.99		55.565		
1		54.6712		
1.01		53.7974		
1.02		52.943		
1.03		52.1074		
1.04		51.2901		
1.05		50.4906		
1.06		49.7083		
1.07		48.9428		
1.08		48.1936		
1.09		47.4602		
1.1		46.7422		
1.11		46.0391		
1.12		45.3506		
1.13		44.6762		
1.14		44.0157		
1.15		43.3685		
1.16		42.7344		
1.17		42.113		
1.18		41.5039		
1.19		40.907		
1.2		40.3217		
1.21		39.7479		
1.22		39.1853		
1.23		38.6335		
1.24		38.0923		
1.25		37.5614		
1.26		37.0406		
1.27		36.5297		
1.28		36.0283		
1.29		35.5363		
1.3		35.0534		
1.31		34.5794		
1.32		34.1141		
1.33		33.6573		
1.34		33.2088		
1.35		32.7683		
1.36		32.3358		
1.37		31.911		
1.38		31.4938		
1.39		31.0839		
1.4		30.6813		
1.41		30.2857		
1.42		29.8969		
1.43		29.515		
1.44		29.1395		
1.45		28.7706		
1.46		28.4079		
1.47		28.0514		
1.48		27.7009		
1.49		27.3563		
1.5		27.0174		
1.51		26.6843		
1.52		26.3566		
1.53		26.0343		
1.54		25.7174		
1.55		25.4056		
1.56		25.0989		
1.57		24.7972		
1.58		24.5003		
1.59		24.2082		
1.6		23.9208		
1.61		23.638		
1.62		23.3596		
1.63		23.0856		
1.64		22.816		
1.65		22.5505		
1.66		22.2892		
1.67		22.032		
1.68		21.7787		
1.69		21.5293		
1.7		21.2837		
1.71		21.0419		
1.72		20.8038		
1.73		20.5692		
1.74		20.3382		
1.75		20.1107		
1.76		19.8866		
1.77		19.6658		
1.78		19.4483		
1.79		19.234		
1.8		19.0228		
1.81		18.8148		
1.82		18.6098		
1.83		18.4077		
1.84		18.2086		
1.85		18.0124		
1.86		17.819		
1.87		17.6284		
1.88		17.4405		
1.89		17.2552		
1.9		17.0726		
1.91		16.8926		
1.92		16.7151		
1.93		16.5401		
1.94		16.3675		
1.95		16.1973		
1.96		16.0295		
1.97		15.864		
1.98		15.7008		
1.99		15.5399		
2		15.3811		
2.01		15.2245		
2.02		15.07		
2.03		14.9176		
2.04		14.7673		
2.05		14.619		
2.06		14.4727		
2.07		14.3283		
2.08		14.1859		
2.09		14.0453		
2.1		13.9066		
2.11		13.7697		
2.12		13.6346		
2.13		13.5013		
2.14		13.3698		
2.15		13.2399		
2.16		13.1117		
2.17		12.9852		
2.18		12.8603		
2.19		12.737		
2.2		12.6153		
2.21		12.4951		
2.22		12.3765		
2.23		12.2594		
2.24		12.1437		
2.25		12.0295		
2.26		11.9168		
2.27		11.8054		
2.28		11.6954		
2.29		11.5868		
2.3		11.4796		
2.31		11.3737		
2.32		11.269		
2.33		11.1657		
2.34		11.0636		
2.35		10.9628		
2.36		10.8632		
2.37		10.7648		
2.38		10.6677		
2.39		10.5716		
2.4		10.4768		
2.41		10.383		
2.42		10.2904		
2.43		10.1989		
2.44		10.1085		
2.45		10.0192		
2.46		9.93089		
2.47		9.84364		
2.48		9.75742		
2.49		9.67221		
2.5		9.588		
2.51		9.50477		
2.52		9.4225		
2.53		9.34119		
2.54		9.26082		
2.55		9.18138		
2.56		9.10285		
2.57		9.02521		
2.58		8.94847		
2.59		8.8726		
2.6		8.79759		
2.61		8.72343		
2.62		8.65011		
2.63		8.57762		
2.64		8.50594		
2.65		8.43507		
2.66		8.36498		
2.67		8.29568		
2.68		8.22715		
2.69		8.15938		
2.7		8.09236		
2.71		8.02608		
2.72		7.96053		
2.73		7.89569		
2.74		7.83157		
2.75		7.76815		
2.76		7.70541		
2.77		7.64336		
2.78		7.58198		
2.79		7.52127		
2.8		7.4612		
2.81		7.40179		
2.82		7.343		
2.83		7.28485		
2.84		7.22732		
2.85		7.1704		
2.86		7.11408		
2.87		7.05836		
2.88		7.00323		
2.89		6.94868		
2.9		6.8947		
2.91		6.84128		
2.92		6.78842		
2.93		6.73612		
2.94		6.68436		
2.95		6.63313		
2.96		6.58244		
2.97		6.53226		
2.98		6.48261		
2.99		6.43346		
3		6.38482		
3.01		6.33667		
3.02		6.28902		
3.03		6.24184		
3.04		6.19515		
3.05		6.14893		
3.06		6.10318		
3.07		6.05788		
3.08		6.01304		
3.09		5.96865		
3.1		5.92471		
3.11		5.8812		
3.12		5.83812		
3.13		5.79547		
3.14		5.75325		
3.15		5.71144		
3.16		5.67004		
3.17		5.62905		
3.18		5.58846		
3.19		5.54827		
3.2		5.50847		
3.21		5.46906		
3.22		5.43003		
3.23		5.39137		
3.24		5.3531		
3.25		5.31519		
3.26		5.27764		
3.27		5.24046		
3.28		5.20363		
3.29		5.16715		
3.3		5.13103		
3.31		5.09524		
3.32		5.05979		
3.33		5.02468		
3.34		4.98991		
3.35		4.95545		
3.36		4.92133		
3.37		4.88752		
3.38		4.85403		
3.39		4.82085		
3.4		4.78798		
3.41		4.75542		
3.42		4.72315		
3.43		4.69119		
3.44		4.65952		
3.45		4.62814		
3.46		4.59706		
3.47		4.56625		
3.48		4.53573		
3.49		4.50549		
3.5		4.47552		
3.51		4.44582		
3.52		4.41639		
3.53		4.38723		
3.54		4.35834		
3.55		4.3297		
3.56		4.30132		
3.57		4.27319		
3.58		4.24532		
3.59		4.21769		
3.6		4.19031		
3.61		4.16318		
3.62		4.13628		
3.63		4.10963		
3.64		4.0832		
3.65		4.05701		
3.66		4.03106		
3.67		4.00532		
3.68		3.97982		
3.69		3.95453		
3.7		3.92947		
3.71		3.90462		
3.72		3.87999		
3.73		3.85558		
3.74		3.83137		
3.75		3.80737		
3.76		3.78358		
3.77		3.76		
3.78		3.73661		
3.79		3.71343		
3.8		3.69044		
3.81		3.66765		
3.82		3.64505		
3.83		3.62264		
3.84		3.60043		
3.85		3.5784		
3.86		3.55655		
3.87		3.53489		
3.88		3.51341		
3.89		3.49211		
3.9		3.47099		
3.91		3.45005		
3.92		3.42927		
3.93		3.40868		
3.94		3.38825		
3.95		3.36799		
3.96		3.34789		
3.97		3.32797		
3.98		3.3082		
3.99		3.2886		
4		3.26916		
4.01		3.24988		
4.02		3.23075		
4.03		3.21178		
4.04		3.19296		
4.05		3.1743		
4.06		3.15578		
4.07		3.13742		
4.08		3.1192		
4.09		3.10113		
4.1		3.0832		
4.11		3.06542		
4.12		3.04778		
4.13		3.03028		
4.14		3.01292		
4.15		2.9957		
4.16		2.97861		
4.17		2.96166		
4.18		2.94484		
4.19		2.92815		
4.2		2.91159		
4.21		2.89517		
4.22		2.87887		
4.23		2.8627		
4.24		2.84665		
4.25		2.83073		
4.26		2.81494		
4.27		2.79926		
4.28		2.78371		
4.29		2.76828		
4.3		2.75296		
4.31		2.73776		
4.32		2.72268		
4.33		2.70772		
4.34		2.69287		
4.35		2.67813		
4.36		2.6635		
4.37		2.64899		
4.38		2.63458		
4.39		2.62029		
4.4		2.6061		
4.41		2.59202		
4.42		2.57804		
4.43		2.56417		
4.44		2.5504		
4.45		2.53674		
4.46		2.52318		
4.47		2.50971		
4.48		2.49635		
4.49		2.48309		
4.5		2.46992		
4.51		2.45686		
4.52		2.44389		
4.53		2.43101		
4.54		2.41823		
4.55		2.40554		
4.56		2.39295		
4.57		2.38044		
4.58		2.36803		
4.59		2.35571		
4.6		2.34348		
4.61		2.33133		
4.62		2.31928		
4.63		2.30731		
4.64		2.29542		
4.65		2.28363		
4.66		2.27191		
4.67		2.26029		
4.68		2.24874		
4.69		2.23728		
4.7		2.22589		
4.71		2.21459		
4.72		2.20337		
4.73		2.19223		
4.74		2.18117		
4.75		2.17018		
4.76		2.15927		
4.77		2.14844		
4.78		2.13769		
4.79		2.12701		
4.8		2.1164		
4.81		2.10587		
4.82		2.09541		
4.83		2.08503		
4.84		2.07472		
4.85		2.06447		
4.86		2.0543		
4.87		2.0442		
4.88		2.03417		
4.89		2.02421		
4.9		2.01431		
4.91		2.00449		
4.92		1.99473		
4.93		1.98503		
4.94		1.97541		
4.95		1.96584		
4.96		1.95635		
4.97		1.94692		
4.98		1.93755		
4.99		1.92824		
5		1.919		
5.01		1.90982		
5.02		1.9007		
5.03		1.89164		
5.04		1.88264		
5.05		1.87371		
5.06		1.86483		
5.07		1.85601		
5.08		1.84725		
5.09		1.83855		
5.1		1.8299		
5.11		1.82131		
5.12		1.81278		
5.13		1.80431		
5.14		1.79589		
5.15		1.78752		
5.16		1.77921		
5.17		1.77096		
5.18		1.76275		
5.19		1.75461		
5.2		1.74651		
5.21		1.73847		
5.22		1.73048		
5.23		1.72254		
5.24		1.71465		
5.25		1.70681		
5.26		1.69902		
5.27		1.69129		
5.28		1.6836		
5.29		1.67596		
5.3		1.66837		
5.31		1.66083		
5.32		1.65334		
5.33		1.64589		
5.34		1.63849		
5.35		1.63114		
5.36		1.62384		
5.37		1.61658		
5.38		1.60936		
5.39		1.60219		
5.4		1.59507		
5.41		1.58799		
5.42		1.58096		
5.43		1.57397		
5.44		1.56702		
5.45		1.56011		
5.46		1.55325		
5.47		1.54643		
5.48		1.53966		
5.49		1.53292		
5.5		1.52623		
5.51		1.51958		
5.52		1.51297		
5.53		1.5064		
5.54		1.49986		
5.55		1.49337		
5.56		1.48692		
5.57		1.48051		
5.58		1.47414		
5.59		1.4678		
5.6		1.46151		
5.61		1.45525		
5.62		1.44903		
5.63		1.44285		
5.64		1.4367		
5.65		1.4306		
5.66		1.42452		
5.67		1.41849		
5.68		1.41249		
5.69		1.40653		
5.7		1.4006		
5.71		1.3947		
5.72		1.38885		
5.73		1.38302		
5.74		1.37724		
5.75		1.37148		
5.76		1.36576		
5.77		1.36007		
5.78		1.35442		
5.79		1.3488		
5.8		1.34321		
5.81		1.33766		
5.82		1.33214		
5.83		1.32665		
5.84		1.32119		
5.85		1.31576		
5.86		1.31037		
5.87		1.305		
5.88		1.29967		
5.89		1.29437		
5.9		1.2891		
5.91		1.28386		
5.92		1.27865		
5.93		1.27347		
5.94		1.26832		
5.95		1.26319		
5.96		1.2581		
5.97		1.25304		
5.98		1.248		
5.99		1.243		
6		1.23802		
6.01		1.23307		
6.02		1.22815		
6.03		1.22325		
6.04		1.21839		
6.05		1.21355		
6.06		1.20874		
6.07		1.20395		
6.08		1.19919		
6.09		1.19446		
6.1		1.18976		
6.11		1.18508		
6.12		1.18043		
6.13		1.1758		
6.14		1.1712		
6.15		1.16662		
6.16		1.16207		
6.17		1.15755		
6.18		1.15305		
6.19		1.14857		
6.2		1.14412		
6.21		1.13969		
6.22		1.13529		
6.23		1.13091		
6.24		1.12656		
6.25		1.12223		
6.26		1.11792		
6.27		1.11364		
6.28		1.10938		
6.29		1.10514		
6.3		1.10092		
6.31		1.09673		
6.32		1.09256		
6.33		1.08842		
6.34		1.08429		
6.35		1.08019		
6.36		1.07611		
6.37		1.07205		
6.38		1.06801		
6.39		1.064		
6.4		1.06		
6.41		1.05603		
6.42		1.05208		
6.43		1.04815		
6.44		1.04424		
6.45		1.04035		
6.46		1.03648		
6.47		1.03263		
6.48		1.0288		
6.49		1.025		
6.5		1.02121		
6.51		1.01744		
6.52		1.01369		
6.53		1.00996		
6.54		1.00625		
6.55		1.00256		
6.56		0.998892		
6.57		0.99524		
6.58		0.991607		
6.59		0.987993		
6.6		0.984397		
6.61		0.98082		
6.62		0.977262		
6.63		0.973721		
6.64		0.970199		
6.65		0.966695		
6.66		0.963209		
6.67		0.959741		
6.68		0.95629		
6.69		0.952857		
6.7		0.949441		
6.71		0.946043		
6.72		0.942662		
6.73		0.939298		
6.74		0.935951		
6.75		0.932622		
6.76		0.929308		
6.77		0.926012		
6.78		0.922732		
6.79		0.919469		
6.8		0.916222		
6.81		0.912991		
6.82		0.909776		
6.83		0.906578		
6.84		0.903395		
6.85		0.900229		
6.86		0.897078		
6.87		0.893942		
6.88		0.890822		
6.89		0.887718		
6.9		0.884629		
6.91		0.881555		
6.92		0.878496		
6.93		0.875453		
6.94		0.872424		
6.95		0.86941		
6.96		0.866411		
6.97		0.863427		
6.98		0.860457		
6.99		0.857502		
7		0.854561		
7.01		0.851635		
7.02		0.848722		
7.03		0.845824		
7.04		0.84294		
7.05		0.84007		
7.06		0.837213		
7.07		0.834371		
7.08		0.831542		
7.09		0.828727		
7.1		0.825925		
7.11		0.823137		
7.12		0.820362		
7.13		0.8176		
7.14		0.814852		
7.15		0.812116		
7.16		0.809394		
7.17		0.806685		
7.18		0.803988		
7.19		0.801304		
7.2		0.798633		
7.21		0.795975		
7.22		0.793329		
7.23		0.790696		
7.24		0.788075		
7.25		0.785466		
7.26		0.78287		
7.27		0.780286		
7.28		0.777714		
7.29		0.775154		
7.3		0.772606		
7.31		0.77007		
7.32		0.767545		
7.33		0.765033		
7.34		0.762532		
7.35		0.760043		
7.36		0.757565		
7.37		0.755098		
7.38		0.752644		
7.39		0.7502		
7.4		0.747768		
7.41		0.745346		
7.42		0.742937		
7.43		0.740538		
7.44		0.73815		
7.45		0.735773		
7.46		0.733407		
7.47		0.731051		
7.48		0.728707		
7.49		0.726373		
7.5		0.724049		
7.51		0.721737		
7.52		0.719434		
7.53		0.717143		
7.54		0.714861		
7.55		0.71259		
7.56		0.710329		
7.57		0.708078		
7.58		0.705838		
7.59		0.703607		
7.6		0.701387		
7.61		0.699176		
7.62		0.696975		
7.63		0.694785		
7.64		0.692604		
7.65		0.690432		
7.66		0.68827		
7.67		0.686118		
7.68		0.683976		
7.69		0.681843		
7.7		0.679719		
7.71		0.677605		
7.72		0.6755		
7.73		0.673405		
7.74		0.671319		
7.75		0.669241		
7.76		0.667173		
7.77		0.665115		
7.78		0.663065		
7.79		0.661024		
7.8		0.658992		
7.81		0.656969		
7.82		0.654954		
7.83		0.652949		
7.84		0.650952		
7.85		0.648964		
7.86		0.646984		
7.87		0.645013		
7.88		0.643051		
7.89		0.641097		
7.9		0.639152		
7.91		0.637214		
7.92		0.635286		
7.93		0.633365		
7.94		0.631453		
7.95		0.629549		
7.96		0.627653		
7.97		0.625765		
7.98		0.623886		
7.99		0.622014		
8		0.62015		
8.01		0.618294		
8.02		0.616447		
8.03		0.614607		
8.04		0.612774		
8.05		0.61095		
8.06		0.609133		
8.07		0.607324		
8.08		0.605523		
8.09		0.603729		
8.1		0.601942		
8.11		0.600164		
8.12		0.598392		
8.13		0.596628		
8.14		0.594872		
8.15		0.593123		
8.16		0.591381		
8.17		0.589646		
8.18		0.587919		
8.19		0.586199		
8.2		0.584486		
8.21		0.58278		
8.22		0.581081		
8.23		0.579389		
8.24		0.577704		
8.25		0.576027		
8.26		0.574356		
8.27		0.572692		
8.28		0.571034		
8.29		0.569384		
8.3		0.567741		
8.31		0.566104		
8.32		0.564474		
8.33		0.56285		
8.34		0.561233		
8.35		0.559623		
8.36		0.558019		
8.37		0.556422		
8.38		0.554832		
8.39		0.553247		
8.4		0.55167		
8.41		0.550098		
8.42		0.548533		
8.43		0.546975		
8.44		0.545422		
8.45		0.543876		
8.46		0.542336		
8.47		0.540802		
8.48		0.539275		
8.49		0.537753		
8.5		0.536238		
8.51		0.534729		
8.52		0.533226		
8.53		0.531729		
8.54		0.530237		
8.55		0.528752		
8.56		0.527273		
8.57		0.525799		
8.58		0.524332		
8.59		0.52287		
8.6		0.521414		
8.61		0.519963		
8.62		0.518519		
8.63		0.51708		
8.64		0.515647		
8.65		0.514219		
8.66		0.512798		
8.67		0.511381		
8.68		0.509971		
8.69		0.508565		
8.7		0.507166		
8.71		0.505771		
8.72		0.504383		
8.73		0.502999		
8.74		0.501621		
8.75		0.500249		
8.76		0.498881		
8.77		0.497519		
8.78		0.496163		
8.79		0.494811		
8.8		0.493465		
8.81		0.492124		
8.82		0.490788		
8.83		0.489458		
8.84		0.488132		
8.85		0.486812		
8.86		0.485496		
8.87		0.484186		
8.88		0.482881		
8.89		0.481581		
8.9		0.480285		
8.91		0.478995		
8.92		0.47771		
8.93		0.476429		
8.94		0.475153		
8.95		0.473883		
8.96		0.472617		
8.97		0.471356		
8.98		0.470099		
8.99		0.468848		
9		0.467601		
9.01		0.466359		
9.02		0.465121		
9.03		0.463888		
9.04		0.46266		
9.05		0.461437		
9.06		0.460218		
9.07		0.459003		
9.08		0.457794		
9.09		0.456588		
9.1		0.455388		
9.11		0.454191		
9.12		0.453		
9.13		0.451812		
9.14		0.450629		
9.15		0.449451		
9.16		0.448277		
9.17		0.447107		
9.18		0.445941		
9.19		0.44478		
9.2		0.443624		
9.21		0.442471		
9.22		0.441323		
9.23		0.440179		
9.24		0.439039		
9.25		0.437903		
9.26		0.436772		
9.27		0.435644		
9.28		0.434521		
9.29		0.433402		
9.3		0.432287		
9.31		0.431176		
9.32		0.430069		
9.33		0.428967		
9.34		0.427868		
9.35		0.426773		
9.36		0.425682		
9.37		0.424596		
9.38		0.423513		
9.39		0.422434		
9.4		0.421359		
9.41		0.420288		
9.42		0.41922		
9.43		0.418157		
9.44		0.417097		
9.45		0.416041		
9.46		0.414989		
9.47		0.413941		
9.48		0.412897		
9.49		0.411856		
9.5		0.410819		
9.51		0.409786		
9.52		0.408756		
9.53		0.407731		
9.54		0.406708		
9.55		0.40569		
9.56		0.404675		
9.57		0.403663		
9.58		0.402656		
9.59		0.401652		
9.6		0.400651		
9.61		0.399654		
9.62		0.39866		
9.63		0.39767		
9.64		0.396684		
9.65		0.395701		
9.66		0.394721		
9.67		0.393745		
9.68		0.392772		
9.69		0.391803		
9.7		0.390837		
9.71		0.389875		
9.72		0.388916		
9.73		0.38796		
9.74		0.387007		
9.75		0.386058		
9.76		0.385112		
9.77		0.38417		
9.78		0.383231		
9.79		0.382295		
9.8		0.381362		
9.81		0.380433		
9.82		0.379506		
9.83		0.378583		
9.84		0.377663		
9.85		0.376747		
9.86		0.375833		
9.87		0.374923		
9.88		0.374016		
9.89		0.373111		
9.9		0.37221		
9.91		0.371313		
9.92		0.370418		
9.93		0.369526		
9.94		0.368637		
9.95		0.367752		
9.96		0.366869		
9.97		0.365989		
9.98		0.365113		
9.99		0.364239		
10		0.363368		
10.01		0.362501		
10.02		0.361636		
10.03		0.360774		
10.04		0.359915		
10.05		0.359059		
10.06		0.358206		
10.07		0.357356		
10.08		0.356508		
10.09		0.355664		
10.1		0.354822		
10.11		0.353983		
10.12		0.353147		
10.13		0.352314		
10.14		0.351484		
10.15		0.350656		
10.16		0.349831		
10.17		0.349009		
10.18		0.34819		
10.19		0.347373		
10.2		0.346559		
10.21		0.345748		
10.22		0.34494		
10.23		0.344134		
10.24		0.343331		
10.25		0.342531		
10.26		0.341733		
10.27		0.340938		
10.28		0.340145		
10.29		0.339355		
10.3		0.338568		
10.31		0.337783		
10.32		0.337001		
10.33		0.336222		
10.34		0.335445		
10.35		0.33467		
10.36		0.333898		
10.37		0.333129		
10.38		0.332362		
10.39		0.331598		
10.4		0.330836		
10.41		0.330077		
10.42		0.32932		
10.43		0.328566		
10.44		0.327814		
10.45		0.327064		
10.46		0.326317		
10.47		0.325573		
10.48		0.32483		
10.49		0.324091		
10.5		0.323353		
10.51		0.322618		
10.52		0.321886		
10.53		0.321155		
10.54		0.320428		
10.55		0.319702		
10.56		0.318979		
10.57		0.318258		
10.58		0.317539		
10.59		0.316823		
10.6		0.316109		
10.61		0.315397		
10.62		0.314688		
10.63		0.313981		
10.64		0.313276		
10.65		0.312573		
10.66		0.311873		
10.67		0.311175		
10.68		0.310479		
10.69		0.309785		
10.7		0.309094		
10.71		0.308405		
10.72		0.307717		
10.73		0.307033		
10.74		0.30635		
10.75		0.305669		
10.76		0.304991		
10.77		0.304314		
10.78		0.30364		
10.79		0.302968		
10.8		0.302298		
10.81		0.30163		
10.82		0.300965		
10.83		0.300301		
10.84		0.299639		
10.85		0.29898		
10.86		0.298322		
10.87		0.297667		
10.88		0.297014		
10.89		0.296363		
10.9		0.295713		
10.91		0.295066		
10.92		0.294421		
10.93		0.293778		
10.94		0.293136		
10.95		0.292497		
10.96		0.29186		
10.97		0.291225		
10.98		0.290591		
10.99		0.28996		
11		0.289331		
11.01		0.288703		
11.02		0.288078		
11.03		0.287454		
11.04		0.286833		
11.05		0.286213		
11.06		0.285595		
11.07		0.284979		
11.08		0.284365		
11.09		0.283753		
11.1		0.283143		
11.11		0.282534		
11.12		0.281928		
11.13		0.281323		
11.14		0.28072		
11.15		0.280119		
11.16		0.27952		
11.17		0.278922		
11.18		0.278327		
11.19		0.277733		
11.2		0.277141		
11.21		0.276551		
11.22		0.275963		
11.23		0.275376		
11.24		0.274791		
11.25		0.274208		
11.26		0.273627		
11.27		0.273048		
11.28		0.27247		
11.29		0.271894		
11.3		0.271319		
11.31		0.270747		
11.32		0.270176		
11.33		0.269607		
11.34		0.269039		
11.35		0.268474		
11.36		0.26791		
11.37		0.267347		
11.38		0.266787		
11.39		0.266228		
11.4		0.26567		
11.41		0.265115		
11.42		0.26456		
11.43		0.264008		
11.44		0.263457		
11.45		0.262908		
11.46		0.262361		
11.47		0.261815		
11.48		0.261271		
11.49		0.260728		
11.5		0.260187		
11.51		0.259648		
11.52		0.25911		
11.53		0.258574		
11.54		0.258039		
11.55		0.257506		
11.56		0.256974		
11.57		0.256444		
11.58		0.255916		
11.59		0.255389		
11.6		0.254864		
11.61		0.25434		
11.62		0.253818		
11.63		0.253297		
11.64		0.252778		
11.65		0.25226		
11.66		0.251744		
11.67		0.251229		
11.68		0.250716		
11.69		0.250204		
11.7		0.249694		
11.71		0.249185		
11.72		0.248678		
11.73		0.248172		
11.74		0.247668		
11.75		0.247165		
11.76		0.246664		
11.77		0.246164		
11.78		0.245665		
11.79		0.245168		
11.8		0.244673		
11.81		0.244179		
11.82		0.243686		
11.83		0.243194		
11.84		0.242704		
11.85		0.242216		
11.86		0.241729		
11.87		0.241243		
11.88		0.240759		
11.89		0.240276		
11.9		0.239794		
11.91		0.239314		
11.92		0.238835		
11.93		0.238357		
11.94		0.237881		
11.95		0.237406		
11.96		0.236933		
11.97		0.236461		
11.98		0.23599		
11.99		0.235521		
12		0.235053		
12.01		0.234586		
12.02		0.23412		
12.03		0.233656		
12.04		0.233193		
12.05		0.232732		
12.06		0.232272		
12.07		0.231813		
12.08		0.231355		
12.09		0.230899		
12.1		0.230444		
12.11		0.22999		
12.12		0.229537		
12.13		0.229086		
12.14		0.228636		
12.15		0.228187		
12.16		0.22774		
12.17		0.227294		
12.18		0.226849		
12.19		0.226405		
12.2		0.225962		
12.21		0.225521		
12.22		0.225081		
12.23		0.224642		
12.24		0.224205		
12.25		0.223768		
12.26		0.223333		
12.27		0.222899		
12.28		0.222466		
12.29		0.222035		
12.3		0.221604		
12.31		0.221175		
12.32		0.220747		
12.33		0.22032		
12.34		0.219895		
12.35		0.21947		
12.36		0.219047		
12.37		0.218625		
12.38		0.218204		
12.39		0.217784		
