tau [fm]		pi [fm^-4]
0.25		0
0.26		12.6389		
0.27		23.2193		
0.28		32.086		
0.29		39.5188		
0.3		45.7466		
0.31		50.9575		
0.32		55.3068		
0.33		58.9239		
0.34		61.9167		
0.35		64.3757		
0.36		66.3773		
0.37		67.986		
0.38		69.2567		
0.39		70.2359		
0.4		70.9637		
0.41		71.4742		
0.42		71.7969		
0.43		71.9571		
0.44		71.9767		
0.45		71.8747		
0.46		71.6676		
0.47		71.3697		
0.48		70.9935		
0.49		70.5499		
0.5		70.0483		
0.51		69.4972		
0.52		68.9037		
0.53		68.2744		
0.54		67.6149		
0.55		66.93		
0.56		66.2242		
0.57		65.5013		
0.58		64.7646		
0.59		64.0171		
0.6		63.2615		
0.61		62.4999		
0.62		61.7346		
0.63		60.9671		
0.64		60.1991		
0.65		59.4321		
0.66		58.6671		
0.67		57.9052		
0.68		57.1475		
0.69		56.3946		
0.7		55.6473		
0.71		54.9062		
0.72		54.1718		
0.73		53.4446		
0.74		52.7249		
0.75		52.0132		
0.76		51.3096		
0.77		50.6144		
0.78		49.9278		
0.79		49.2499		
0.8		48.5809		
0.81		47.9209		
0.82		47.2698		
0.83		46.6278		
0.84		45.9948		
0.85		45.371		
0.86		44.7561		
0.87		44.1503		
0.88		43.5535		
0.89		42.9656		
0.9		42.3866		
0.91		41.8163		
0.92		41.2548		
0.93		40.7019		
0.94		40.1575		
0.95		39.6216		
0.96		39.0941		
0.97		38.5747		
0.98		38.0635		
0.99		37.5604		
1		37.0651		
1.01		36.5776		
1.02		36.0979		
1.03		35.6257		
1.04		35.161		
1.05		34.7036		
1.06		34.2534		
1.07		33.8104		
1.08		33.3744		
1.09		32.9453		
1.1		32.5229		
1.11		32.1072		
1.12		31.6981		
1.13		31.2954		
1.14		30.8991		
1.15		30.5089		
1.16		30.1249		
1.17		29.747		
1.18		29.3749		
1.19		29.0086		
1.2		28.6481		
1.21		28.2931		
1.22		27.9437		
1.23		27.5997		
1.24		27.261		
1.25		26.9276		
1.26		26.5993		
1.27		26.276		
1.28		25.9577		
1.29		25.6442		
1.3		25.3355		
1.31		25.0316		
1.32		24.7322		
1.33		24.4374		
1.34		24.1471		
1.35		23.8611		
1.36		23.5794		
1.37		23.3019		
1.38		23.0286		
1.39		22.7594		
1.4		22.4942		
1.41		22.2329		
1.42		21.9755		
1.43		21.7219		
1.44		21.472		
1.45		21.2258		
1.46		20.9831		
1.47		20.7441		
1.48		20.5085		
1.49		20.2763		
1.5		20.0475		
1.51		19.822		
1.52		19.5997		
1.53		19.3807		
1.54		19.1647		
1.55		18.9519		
1.56		18.742		
1.57		18.5352		
1.58		18.3313		
1.59		18.1303		
1.6		17.932		
1.61		17.7366		
1.62		17.5439		
1.63		17.3539		
1.64		17.1666		
1.65		16.9818		
1.66		16.7996		
1.67		16.6199		
1.68		16.4427		
1.69		16.268		
1.7		16.0956		
1.71		15.9255		
1.72		15.7578		
1.73		15.5924		
1.74		15.4292		
1.75		15.2682		
1.76		15.1093		
1.77		14.9526		
1.78		14.798		
1.79		14.6454		
1.8		14.4949		
1.81		14.3464		
1.82		14.1999		
1.83		14.0552		
1.84		13.9125		
1.85		13.7717		
1.86		13.6327		
1.87		13.4955		
1.88		13.3601		
1.89		13.2264		
1.9		13.0945		
1.91		12.9643		
1.92		12.8358		
1.93		12.7089		
1.94		12.5836		
1.95		12.46		
1.96		12.3379		
1.97		12.2173		
1.98		12.0983		
1.99		11.9808		
2		11.8648		
2.01		11.7502		
2.02		11.6371		
2.03		11.5254		
2.04		11.415		
2.05		11.3061		
2.06		11.1985		
2.07		11.0922		
2.08		10.9872		
2.09		10.8836		
2.1		10.7812		
2.11		10.68		
2.12		10.5801		
2.13		10.4814		
2.14		10.3839		
2.15		10.2876		
2.16		10.1924		
2.17		10.0984		
2.18		10.0056		
2.19		9.91379		
2.2		9.82312		
2.21		9.73353		
2.22		9.64501		
2.23		9.55754		
2.24		9.4711		
2.25		9.38569		
2.26		9.30128		
2.27		9.21786		
2.28		9.13542		
2.29		9.05394		
2.3		8.97341		
2.31		8.89382		
2.32		8.81515		
2.33		8.73739		
2.34		8.66052		
2.35		8.58455		
2.36		8.50944		
2.37		8.4352		
2.38		8.3618		
2.39		8.28924		
2.4		8.21751		
2.41		8.14659		
2.42		8.07647		
2.43		8.00714		
2.44		7.9386		
2.45		7.87082		
2.46		7.8038		
2.47		7.73753		
2.48		7.672		
2.49		7.6072		
2.5		7.54312		
2.51		7.47975		
2.52		7.41708		
2.53		7.3551		
2.54		7.2938		
2.55		7.23317		
2.56		7.17321		
2.57		7.1139		
2.58		7.05523		
2.59		6.99721		
2.6		6.93981		
2.61		6.88303		
2.62		6.82686		
2.63		6.7713		
2.64		6.71634		
2.65		6.66196		
2.66		6.60817		
2.67		6.55495		
2.68		6.50229		
2.69		6.45019		
2.7		6.39865		
2.71		6.34765		
2.72		6.29718		
2.73		6.24725		
2.74		6.19784		
2.75		6.14895		
2.76		6.10057		
2.77		6.05269		
2.78		6.00531		
2.79		5.95842		
2.8		5.91202		
2.81		5.86609		
2.82		5.82064		
2.83		5.77566		
2.84		5.73114		
2.85		5.68707		
2.86		5.64345		
2.87		5.60028		
2.88		5.55754		
2.89		5.51524		
2.9		5.47337		
2.91		5.43191		
2.92		5.39088		
2.93		5.35026		
2.94		5.31004		
2.95		5.27023		
2.96		5.23082		
2.97		5.1918		
2.98		5.15316		
2.99		5.11491		
3		5.07704		
3.01		5.03954		
3.02		5.00241		
3.03		4.96564		
3.04		4.92924		
3.05		4.89319		
3.06		4.8575		
3.07		4.82215		
3.08		4.78714		
3.09		4.75248		
3.1		4.71815		
3.11		4.68415		
3.12		4.65048		
3.13		4.61714		
3.14		4.58411		
3.15		4.5514		
3.16		4.519		
3.17		4.48691		
3.18		4.45513		
3.19		4.42365		
3.2		4.39247		
3.21		4.36158		
3.22		4.33098		
3.23		4.30067		
3.24		4.27065		
3.25		4.24091		
3.26		4.21144		
3.27		4.18225		
3.28		4.15333		
3.29		4.12468		
3.3		4.0963		
3.31		4.06818		
3.32		4.04032		
3.33		4.01272		
3.34		3.98536		
3.35		3.95827		
3.36		3.93141		
3.37		3.90481		
3.38		3.87845		
3.39		3.85232		
3.4		3.82644		
3.41		3.80078		
3.42		3.77537		
3.43		3.75018		
3.44		3.72521		
3.45		3.70047		
3.46		3.67596		
3.47		3.65166		
3.48		3.62758		
3.49		3.60371		
3.5		3.58006		
3.51		3.55662		
3.52		3.53338		
3.53		3.51035		
3.54		3.48752		
3.55		3.4649		
3.56		3.44247		
3.57		3.42024		
3.58		3.3982		
3.59		3.37636		
3.6		3.35471		
3.61		3.33324		
3.62		3.31196		
3.63		3.29087		
3.64		3.26996		
3.65		3.24923		
3.66		3.22867		
3.67		3.2083		
3.68		3.18809		
3.69		3.16807		
3.7		3.14821		
3.71		3.12852		
3.72		3.109		
3.73		3.08964		
3.74		3.07045		
3.75		3.05142		
3.76		3.03255		
3.77		3.01385		
3.78		2.99529		
3.79		2.9769		
3.8		2.95865		
3.81		2.94056		
3.82		2.92262		
3.83		2.90483		
3.84		2.88719		
3.85		2.8697		
3.86		2.85234		
3.87		2.83514		
3.88		2.81807		
3.89		2.80114		
3.9		2.78436		
3.91		2.76771		
3.92		2.75119		
3.93		2.73481		
3.94		2.71857		
3.95		2.70246		
3.96		2.68647		
3.97		2.67062		
3.98		2.65489		
3.99		2.6393		
4		2.62382		
4.01		2.60847		
4.02		2.59325		
4.03		2.57814		
4.04		2.56316		
4.05		2.5483		
4.06		2.53355		
4.07		2.51892		
4.08		2.50441		
4.09		2.49001		
4.1		2.47573		
4.11		2.46156		
4.12		2.4475		
4.13		2.43355		
4.14		2.41971		
4.15		2.40597		
4.16		2.39235		
4.17		2.37883		
4.18		2.36542		
4.19		2.35211		
4.2		2.3389		
4.21		2.32579		
4.22		2.31279		
4.23		2.29989		
4.24		2.28708		
4.25		2.27438		
4.26		2.26177		
4.27		2.24925		
4.28		2.23684		
4.29		2.22451		
4.3		2.21228		
4.31		2.20015		
4.32		2.1881		
4.33		2.17615		
4.34		2.16429		
4.35		2.15251		
4.36		2.14083		
4.37		2.12923		
4.38		2.11772		
4.39		2.10629		
4.4		2.09495		
4.41		2.0837		
4.42		2.07252		
4.43		2.06143		
4.44		2.05043		
4.45		2.0395		
4.46		2.02866		
4.47		2.01789		
4.48		2.0072		
4.49		1.99659		
4.5		1.98606		
4.51		1.97561		
4.52		1.96523		
4.53		1.95493		
4.54		1.9447		
4.55		1.93455		
4.56		1.92447		
4.57		1.91446		
4.58		1.90453		
4.59		1.89467		
4.6		1.88487		
4.61		1.87515		
4.62		1.8655		
4.63		1.85592		
4.64		1.8464		
4.65		1.83695		
4.66		1.82757		
4.67		1.81826		
4.68		1.80901		
4.69		1.79983		
4.7		1.79071		
4.71		1.78166		
4.72		1.77267		
4.73		1.76374		
4.74		1.75488		
4.75		1.74607		
4.76		1.73733		
4.77		1.72865		
4.78		1.72003		
4.79		1.71147		
4.8		1.70297		
4.81		1.69453		
4.82		1.68615		
4.83		1.67782		
4.84		1.66955		
4.85		1.66134		
4.86		1.65318		
4.87		1.64508		
4.88		1.63704		
4.89		1.62905		
4.9		1.62111		
4.91		1.61323		
4.92		1.60541		
4.93		1.59763		
4.94		1.58991		
4.95		1.58224		
4.96		1.57462		
4.97		1.56705		
4.98		1.55953		
4.99		1.55207		
5		1.54465		
5.01		1.53728		
5.02		1.52997		
5.03		1.5227		
5.04		1.51547		
5.05		1.5083		
5.06		1.50118		
5.07		1.4941		
5.08		1.48706		
5.09		1.48008		
5.1		1.47314		
5.11		1.46624		
5.12		1.45939		
5.13		1.45259		
5.14		1.44583		
5.15		1.43911		
5.16		1.43244		
5.17		1.42581		
5.18		1.41923		
5.19		1.41268		
5.2		1.40618		
5.21		1.39972		
5.22		1.3933		
5.23		1.38692		
5.24		1.38059		
5.25		1.37429		
5.26		1.36804		
5.27		1.36182		
5.28		1.35565		
5.29		1.34951		
5.3		1.34341		
5.31		1.33735		
5.32		1.33133		
5.33		1.32535		
5.34		1.3194		
5.35		1.3135		
5.36		1.30763		
5.37		1.30179		
5.38		1.296		
5.39		1.29023		
5.4		1.28451		
5.41		1.27882		
5.42		1.27317		
5.43		1.26755		
5.44		1.26196		
5.45		1.25641		
5.46		1.2509		
5.47		1.24542		
5.48		1.23997		
5.49		1.23455		
5.5		1.22917		
5.51		1.22383		
5.52		1.21851		
5.53		1.21323		
5.54		1.20798		
5.55		1.20276		
5.56		1.19757		
5.57		1.19241		
5.58		1.18729		
5.59		1.1822		
5.6		1.17713		
5.61		1.1721		
5.62		1.1671		
5.63		1.16213		
5.64		1.15719		
5.65		1.15227		
5.66		1.14739		
5.67		1.14254		
5.68		1.13771		
5.69		1.13291		
5.7		1.12814		
5.71		1.1234		
5.72		1.11869		
5.73		1.11401		
5.74		1.10935		
5.75		1.10472		
5.76		1.10012		
5.77		1.09555		
5.78		1.091		
5.79		1.08648		
5.8		1.08198		
5.81		1.07751		
5.82		1.07307		
5.83		1.06865		
5.84		1.06426		
5.85		1.05989		
5.86		1.05555		
5.87		1.05124		
5.88		1.04695		
5.89		1.04268		
5.9		1.03844		
5.91		1.03422		
5.92		1.03003		
5.93		1.02586		
5.94		1.02171		
5.95		1.01759		
5.96		1.01349		
5.97		1.00942		
5.98		1.00537		
5.99		1.00134		
6		0.997331		
6.01		0.993347		
6.02		0.989386		
6.03		0.985447		
6.04		0.98153		
6.05		0.977635		
6.06		0.973762		
6.07		0.969911		
6.08		0.966081		
6.09		0.962272		
6.1		0.958485		
6.11		0.954718		
6.12		0.950973		
6.13		0.947248		
6.14		0.943544		
6.15		0.93986		
6.16		0.936197		
6.17		0.932554		
6.18		0.928931		
6.19		0.925327		
6.2		0.921744		
6.21		0.91818		
6.22		0.914635		
6.23		0.91111		
6.24		0.907604		
6.25		0.904117		
6.26		0.900649		
6.27		0.8972		
6.28		0.893769		
6.29		0.890357		
6.3		0.886964		
6.31		0.883589		
6.32		0.880231		
6.33		0.876892		
6.34		0.873571		
6.35		0.870268		
6.36		0.866982		
6.37		0.863713		
6.38		0.860463		
6.39		0.857229		
6.4		0.854013		
6.41		0.850813		
6.42		0.847631		
6.43		0.844466		
6.44		0.841317		
6.45		0.838185		
6.46		0.835069		
6.47		0.83197		
6.48		0.828887		
6.49		0.82582		
6.5		0.822769		
6.51		0.819734		
6.52		0.816715		
6.53		0.813712		
6.54		0.810724		
6.55		0.807752		
6.56		0.804795		
6.57		0.801853		
6.58		0.798927		
6.59		0.796016		
6.6		0.79312		
6.61		0.790239		
6.62		0.787372		
6.63		0.784521		
6.64		0.781684		
6.65		0.778861		
6.66		0.776053		
6.67		0.773259		
6.68		0.77048		
6.69		0.767714		
6.7		0.764963		
6.71		0.762226		
6.72		0.759502		
6.73		0.756792		
6.74		0.754096		
6.75		0.751414		
6.76		0.748745		
6.77		0.746089		
6.78		0.743447		
6.79		0.740818		
6.8		0.738202		
6.81		0.7356		
6.82		0.73301		
6.83		0.730433		
6.84		0.727869		
6.85		0.725318		
6.86		0.72278		
6.87		0.720254		
6.88		0.71774		
6.89		0.715239		
6.9		0.712751		
6.91		0.710274		
6.92		0.70781		
6.93		0.705358		
6.94		0.702918		
6.95		0.70049		
6.96		0.698074		
6.97		0.695669		
6.98		0.693277		
6.99		0.690896		
7		0.688526		
7.01		0.686168		
7.02		0.683822		
7.03		0.681487		
7.04		0.679163		
7.05		0.67685		
7.06		0.674549		
7.07		0.672259		
7.08		0.669979		
7.09		0.667711		
7.1		0.665454		
7.11		0.663207		
7.12		0.660971		
7.13		0.658746		
7.14		0.656531		
7.15		0.654327		
7.16		0.652134		
7.17		0.649951		
7.18		0.647778		
7.19		0.645616		
7.2		0.643463		
7.21		0.641321		
7.22		0.63919		
7.23		0.637068		
7.24		0.634956		
7.25		0.632854		
7.26		0.630762		
7.27		0.62868		
7.28		0.626607		
7.29		0.624544		
7.3		0.622491		
7.31		0.620447		
7.32		0.618413		
7.33		0.616389		
7.34		0.614373		
7.35		0.612368		
7.36		0.610371		
7.37		0.608384		
7.38		0.606405		
7.39		0.604436		
7.4		0.602476		
7.41		0.600525		
7.42		0.598583		
7.43		0.59665		
7.44		0.594726		
7.45		0.59281		
7.46		0.590904		
7.47		0.589006		
7.48		0.587116		
7.49		0.585236		
7.5		0.583363		
7.51		0.5815		
7.52		0.579644		
7.53		0.577798		
7.54		0.575959		
7.55		0.574129		
7.56		0.572307		
7.57		0.570493		
7.58		0.568688		
7.59		0.56689		
7.6		0.565101		
7.61		0.563319		
7.62		0.561546		
7.63		0.55978		
7.64		0.558023		
7.65		0.556273		
7.66		0.554531		
7.67		0.552797		
7.68		0.55107		
7.69		0.549351		
7.7		0.54764		
7.71		0.545936		
7.72		0.54424		
7.73		0.542551		
7.74		0.54087		
7.75		0.539196		
7.76		0.537529		
7.77		0.53587		
7.78		0.534218		
7.79		0.532573		
7.8		0.530936		
7.81		0.529305		
7.82		0.527682		
7.83		0.526066		
7.84		0.524457		
7.85		0.522854		
7.86		0.521259		
7.87		0.519671		
7.88		0.518089		
7.89		0.516515		
7.9		0.514947		
7.91		0.513386		
7.92		0.511831		
7.93		0.510284		
7.94		0.508743		
7.95		0.507208		
7.96		0.50568		
7.97		0.504159		
7.98		0.502644		
7.99		0.501136		
8		0.499634		
8.01		0.498138		
8.02		0.496649		
8.03		0.495166		
8.04		0.49369		
8.05		0.492219		
8.06		0.490755		
8.07		0.489297		
8.08		0.487845		
8.09		0.4864		
8.1		0.48496		
8.11		0.483527		
8.12		0.482099		
8.13		0.480678		
8.14		0.479262		
8.15		0.477852		
8.16		0.476449		
8.17		0.475051		
8.18		0.473659		
8.19		0.472272		
8.2		0.470892		
8.21		0.469517		
8.22		0.468148		
8.23		0.466784		
8.24		0.465427		
8.25		0.464075		
8.26		0.462728		
8.27		0.461387		
8.28		0.460051		
8.29		0.458721		
8.3		0.457397		
8.31		0.456078		
8.32		0.454764		
8.33		0.453456		
8.34		0.452152		
8.35		0.450855		
8.36		0.449562		
8.37		0.448275		
8.38		0.446993		
8.39		0.445717		
8.4		0.444445		
8.41		0.443179		
8.42		0.441918		
8.43		0.440661		
8.44		0.43941		
8.45		0.438164		
8.46		0.436923		
8.47		0.435687		
8.48		0.434456		
8.49		0.43323		
8.5		0.432009		
8.51		0.430793		
8.52		0.429581		
8.53		0.428375		
8.54		0.427173		
8.55		0.425976		
8.56		0.424784		
8.57		0.423596		
8.58		0.422413		
8.59		0.421235		
8.6		0.420062		
8.61		0.418893		
8.62		0.417729		
8.63		0.41657		
8.64		0.415415		
8.65		0.414264		
8.66		0.413118		
8.67		0.411977		
8.68		0.41084		
8.69		0.409708		
8.7		0.40858		
8.71		0.407456		
8.72		0.406337		
8.73		0.405222		
8.74		0.404111		
8.75		0.403005		
8.76		0.401903		
8.77		0.400806		
8.78		0.399713		
8.79		0.398623		
8.8		0.397539		
8.81		0.396458		
8.82		0.395381		
8.83		0.394309		
8.84		0.393241		
8.85		0.392177		
8.86		0.391117		
8.87		0.390061		
8.88		0.389009		
8.89		0.387961		
8.9		0.386917		
8.91		0.385877		
8.92		0.384842		
8.93		0.38381		
8.94		0.382782		
8.95		0.381758		
8.96		0.380737		
8.97		0.379721		
8.98		0.378709		
8.99		0.3777		
9		0.376695		
9.01		0.375694		
9.02		0.374697		
9.03		0.373704		
9.04		0.372714		
9.05		0.371728		
9.06		0.370746		
9.07		0.369767		
9.08		0.368792		
9.09		0.367821		
9.1		0.366853		
9.11		0.365889		
9.12		0.364929		
9.13		0.363972		
9.14		0.363019		
9.15		0.362069		
9.16		0.361123		
9.17		0.36018		
9.18		0.359241		
9.19		0.358305		
9.2		0.357373		
9.21		0.356444		
9.22		0.355519		
9.23		0.354597		
9.24		0.353678		
9.25		0.352763		
9.26		0.351852		
9.27		0.350943		
9.28		0.350038		
9.29		0.349136		
9.3		0.348238		
9.31		0.347343		
9.32		0.346451		
9.33		0.345562		
9.34		0.344677		
9.35		0.343794		
9.36		0.342915		
9.37		0.34204		
9.38		0.341167		
9.39		0.340298		
9.4		0.339431		
9.41		0.338568		
9.42		0.337708		
9.43		0.336851		
9.44		0.335997		
9.45		0.335147		
9.46		0.334299		
9.47		0.333454		
9.48		0.332613		
9.49		0.331774		
9.5		0.330938		
9.51		0.330106		
9.52		0.329276		
9.53		0.32845		
9.54		0.327626		
9.55		0.326805		
9.56		0.325987		
9.57		0.325172		
9.58		0.32436		
9.59		0.323551		
9.6		0.322745		
9.61		0.321941		
9.62		0.321141		
9.63		0.320343		
9.64		0.319548		
9.65		0.318756		
9.66		0.317967		
9.67		0.31718		
9.68		0.316396		
9.69		0.315615		
9.7		0.314837		
9.71		0.314061		
9.72		0.313289		
9.73		0.312518		
9.74		0.311751		
9.75		0.310986		
9.76		0.310224		
9.77		0.309465		
9.78		0.308708		
9.79		0.307954		
9.8		0.307202		
9.81		0.306453		
9.82		0.305707		
9.83		0.304963		
9.84		0.304222		
9.85		0.303483		
9.86		0.302747		
9.87		0.302014		
9.88		0.301283		
9.89		0.300554		
9.9		0.299828		
9.91		0.299105		
9.92		0.298384		
9.93		0.297665		
9.94		0.296949		
9.95		0.296235		
9.96		0.295524		
9.97		0.294815		
9.98		0.294109		
9.99		0.293405		
10		0.292704		
10.01		0.292004		
10.02		0.291308		
10.03		0.290613		
10.04		0.289921		
10.05		0.289231		
10.06		0.288544		
10.07		0.287859		
10.08		0.287176		
10.09		0.286496		
10.1		0.285818		
10.11		0.285142		
10.12		0.284468		
10.13		0.283797		
10.14		0.283128		
10.15		0.282461		
10.16		0.281796		
10.17		0.281134		
10.18		0.280474		
10.19		0.279816		
10.2		0.27916		
10.21		0.278507		
10.22		0.277855		
10.23		0.277206		
10.24		0.276559		
10.25		0.275914		
10.26		0.275271		
10.27		0.27463		
10.28		0.273992		
10.29		0.273356		
10.3		0.272721		
10.31		0.272089		
10.32		0.271459		
10.33		0.270831		
10.34		0.270205		
10.35		0.269581		
10.36		0.268959		
10.37		0.268339		
10.38		0.267721		
10.39		0.267105		
10.4		0.266492		
10.41		0.26588		
10.42		0.26527		
10.43		0.264662		
10.44		0.264057		
10.45		0.263453		
10.46		0.262851		
10.47		0.262251		
10.48		0.261653		
10.49		0.261057		
10.5		0.260463		
10.51		0.259871		
10.52		0.25928		
10.53		0.258692		
10.54		0.258106		
10.55		0.257521		
10.56		0.256938		
10.57		0.256358		
10.58		0.255779		
10.59		0.255202		
10.6		0.254626		
10.61		0.254053		
10.62		0.253482		
10.63		0.252912		
10.64		0.252344		
10.65		0.251778		
10.66		0.251214		
10.67		0.250651		
10.68		0.250091		
10.69		0.249532		
10.7		0.248975		
10.71		0.248419		
10.72		0.247866		
10.73		0.247314		
10.74		0.246764		
10.75		0.246215		
10.76		0.245669		
10.77		0.245124		
10.78		0.244581		
10.79		0.244039		
10.8		0.2435		
10.81		0.242962		
10.82		0.242425		
10.83		0.241891		
10.84		0.241358		
10.85		0.240826		
10.86		0.240297		
10.87		0.239769		
10.88		0.239242		
10.89		0.238718		
10.9		0.238195		
10.91		0.237673		
10.92		0.237153		
10.93		0.236635		
10.94		0.236119		
10.95		0.235604		
10.96		0.23509		
10.97		0.234578		
10.98		0.234068		
10.99		0.23356		
11		0.233053		
11.01		0.232547		
11.02		0.232043		
11.03		0.231541		
11.04		0.23104		
11.05		0.230541		
11.06		0.230043		
11.07		0.229547		
11.08		0.229052		
11.09		0.228559		
11.1		0.228067		
11.11		0.227577		
11.12		0.227089		
11.13		0.226601		
11.14		0.226116		
11.15		0.225632		
11.16		0.225149		
11.17		0.224668		
11.18		0.224188		
11.19		0.22371		
11.2		0.223233		
11.21		0.222757		
11.22		0.222283		
11.23		0.221811		
11.24		0.22134		
11.25		0.22087		
11.26		0.220402		
11.27		0.219935		
11.28		0.219469		
11.29		0.219005		
11.3		0.218543		
11.31		0.218081		
11.32		0.217621		
11.33		0.217163		
11.34		0.216706		
11.35		0.21625		
11.36		0.215796		
11.37		0.215343		
11.38		0.214891		
11.39		0.214441		
11.4		0.213992		
11.41		0.213544		
11.42		0.213098		
11.43		0.212653		
11.44		0.212209		
11.45		0.211767		
11.46		0.211326		
11.47		0.210886		
11.48		0.210448		
11.49		0.210011		
11.5		0.209575		
11.51		0.20914		
11.52		0.208707		
11.53		0.208275		
11.54		0.207844		
11.55		0.207415		
11.56		0.206987		
11.57		0.20656		
11.58		0.206134		
11.59		0.20571		
11.6		0.205286		
11.61		0.204864		
11.62		0.204444		
11.63		0.204024		
11.64		0.203606		
11.65		0.203189		
11.66		0.202773		
11.67		0.202359		
11.68		0.201945		
11.69		0.201533		
11.7		0.201122		
11.71		0.200712		
11.72		0.200304		
11.73		0.199896		
11.74		0.19949		
11.75		0.199085		
11.76		0.198681		
11.77		0.198278		
11.78		0.197877		
11.79		0.197476		
11.8		0.197077		
11.81		0.196679		
11.82		0.196282		
11.83		0.195886		
11.84		0.195491		
11.85		0.195098		
11.86		0.194705		
11.87		0.194314		
11.88		0.193924		
11.89		0.193535		
11.9		0.193147		
11.91		0.19276		
11.92		0.192374		
11.93		0.19199		
11.94		0.191606		
11.95		0.191224		
11.96		0.190842		
11.97		0.190462		
11.98		0.190083		
11.99		0.189705		
12		0.189328		
12.01		0.188952		
12.02		0.188577		
12.03		0.188203		
12.04		0.18783		
12.05		0.187458		
12.06		0.187087		
12.07		0.186718		
12.08		0.186349		
12.09		0.185981		
12.1		0.185615		
12.11		0.185249		
12.12		0.184885		
12.13		0.184521		
12.14		0.184159		
12.15		0.183797		
12.16		0.183437		
12.17		0.183078		
12.18		0.182719		
12.19		0.182362		
12.2		0.182005		
12.21		0.18165		
12.22		0.181295		
12.23		0.180942		
12.24		0.180589		
12.25		0.180238		
12.26		0.179887		
12.27		0.179538		
12.28		0.179189		
12.29		0.178841		
12.3		0.178495		
12.31		0.178149		
12.32		0.177804		
12.33		0.17746		
12.34		0.177117		
12.35		0.176775		
12.36		0.176434		
