tau [fm]		Pi [fm^-4]
0.25		0
0.26		-0.36871		
0.27		-0.61137		
0.28		-0.75381		
0.29		-0.8264		
0.3		-0.85091		
0.31		-0.84293		
0.32		-0.8136		
0.33		-0.77085		
0.34		-0.72028		
0.35		-0.66581		
0.36		-0.61015		
0.37		-0.55512		
0.38		-0.50194		
0.39		-0.45137		
0.4		-0.40384		
0.41		-0.35956		
0.42		-0.3186		
0.43		-0.28092		
0.44		-0.24639		
0.45		-0.21486		
0.46		-0.18615		
0.47		-0.16006		
0.48		-0.1364		
0.49		-0.11498		
0.5		-0.095611		
0.51		-0.078113		
0.52		-0.062323		
0.53		-0.048088		
0.54		-0.035265		
0.55		-0.023724		
0.56		-0.013346		
0.57		-0.0040226		
0.58		0.0043457		
0.59		0.011848		
0.6		0.018567		
0.61		0.024575		
0.62		0.02994		
0.63		0.034721		
0.64		0.038974		
0.65		0.042747		
0.66		0.046085		
0.67		0.049029		
0.68		0.051614		
0.69		0.053875		
0.7		0.05584		
0.71		0.057537		
0.72		0.058991		
0.73		0.060223		
0.74		0.061254		
0.75		0.062101		
0.76		0.062783		
0.77		0.063313		
0.78		0.063705		
0.79		0.063973		
0.8		0.064127		
0.81		0.064177		
0.82		0.064134		
0.83		0.064005		
0.84		0.063799		
0.85		0.063523		
0.86		0.063184		
0.87		0.062787		
0.88		0.062338		
0.89		0.061843		
0.9		0.061305		
0.91		0.060729		
0.92		0.060119		
0.93		0.059479		
0.94		0.058811		
0.95		0.05812		
0.96		0.057407		
0.97		0.056675		
0.98		0.055926		
0.99		0.055164		
1		0.054389		
1.01		0.053603		
1.02		0.052809		
1.03		0.052008		
1.04		0.0512		
1.05		0.050388		
1.06		0.049573		
1.07		0.048755		
1.08		0.047937		
1.09		0.047118		
1.1		0.046299		
1.11		0.045482		
1.12		0.044667		
1.13		0.043855		
1.14		0.043046		
1.15		0.042241		
1.16		0.04144		
1.17		0.040644		
1.18		0.039854		
1.19		0.039069		
1.2		0.03829		
1.21		0.037517		
1.22		0.036751		
1.23		0.035991		
1.24		0.035239		
1.25		0.034494		
1.26		0.033756		
1.27		0.033026		
1.28		0.032303		
1.29		0.031588		
1.3		0.030881		
1.31		0.030182		
1.32		0.029491		
1.33		0.028809		
1.34		0.028134		
1.35		0.027467		
1.36		0.026809		
1.37		0.026158		
1.38		0.025516		
1.39		0.024882		
1.4		0.024256		
1.41		0.023638		
1.42		0.023028		
1.43		0.022427		
1.44		0.021833		
1.45		0.021247		
1.46		0.020669		
1.47		0.020099		
1.48		0.019536		
1.49		0.018981		
1.5		0.018434		
1.51		0.017894		
1.52		0.017362		
1.53		0.016837		
1.54		0.01632		
1.55		0.015809		
1.56		0.015306		
1.57		0.01481		
1.58		0.01432		
1.59		0.013838		
1.6		0.013362		
1.61		0.012893		
1.62		0.012431		
1.63		0.011975		
1.64		0.011525		
1.65		0.011082		
1.66		0.010645		
1.67		0.010213		
1.68		0.0097884		
1.69		0.0093693		
1.7		0.008956		
1.71		0.0085484		
1.72		0.0081464		
1.73		0.00775		
1.74		0.007359		
1.75		0.0069734		
1.76		0.0065931		
1.77		0.0062179		
1.78		0.0058478		
1.79		0.0054828		
1.8		0.0051226		
1.81		0.0047673		
1.82		0.0044167		
1.83		0.0040708		
1.84		0.0037294		
1.85		0.0033926		
1.86		0.0030601		
1.87		0.002732		
1.88		0.0024082		
1.89		0.0020885		
1.9		0.0017729		
1.91		0.0014613		
1.92		0.0011537		
1.93		0.00084993		
1.94		0.00054997		
1.95		0.00025374		
1.96		-3.8833e-05		
1.97		-0.00032782		
1.98		-0.00061329		
1.99		-0.0008953		
2		-0.0011739		
2.01		-0.0014492		
2.02		-0.0017213		
2.03		-0.0019902		
2.04		-0.0022559		
2.05		-0.0025185		
2.06		-0.0027782		
2.07		-0.0030349		
2.08		-0.0032886		
2.09		-0.0035396		
2.1		-0.0037877		
2.11		-0.0040332		
2.12		-0.0042759		
2.13		-0.004516		
2.14		-0.0047536		
2.15		-0.0049886		
2.16		-0.0052212		
2.17		-0.0054513		
2.18		-0.005679		
2.19		-0.0059044		
2.2		-0.0061275		
2.21		-0.0063483		
2.22		-0.006567		
2.23		-0.0067835		
2.24		-0.0069979		
2.25		-0.0072101		
2.26		-0.0074204		
2.27		-0.0076286		
2.28		-0.0078349		
2.29		-0.0080393		
2.3		-0.0082417		
2.31		-0.0084424		
2.32		-0.0086412		
2.33		-0.0088382		
2.34		-0.0090334		
2.35		-0.009227		
2.36		-0.0094188		
2.37		-0.009609		
2.38		-0.0097976		
2.39		-0.0099845		
2.4		-0.01017		
2.41		-0.010354		
2.42		-0.010536		
2.43		-0.010717		
2.44		-0.010896		
2.45		-0.011074		
2.46		-0.011251		
2.47		-0.011426		
2.48		-0.0116		
2.49		-0.011772		
2.5		-0.011944		
2.51		-0.012113		
2.52		-0.012282		
2.53		-0.012449		
2.54		-0.012615		
2.55		-0.01278		
2.56		-0.012944		
2.57		-0.013107		
2.58		-0.013268		
2.59		-0.013428		
2.6		-0.013587		
2.61		-0.013746		
2.62		-0.013903		
2.63		-0.014058		
2.64		-0.014213		
2.65		-0.014367		
2.66		-0.01452		
2.67		-0.014672		
2.68		-0.014823		
2.69		-0.014972		
2.7		-0.015121		
2.71		-0.015269		
2.72		-0.015416		
2.73		-0.015562		
2.74		-0.015708		
2.75		-0.015852		
2.76		-0.015995		
2.77		-0.016138		
2.78		-0.016279		
2.79		-0.01642		
2.8		-0.01656		
2.81		-0.016699		
2.82		-0.016838		
2.83		-0.016975		
2.84		-0.017112		
2.85		-0.017248		
2.86		-0.017383		
2.87		-0.017517		
2.88		-0.017651		
2.89		-0.017784		
2.9		-0.017916		
2.91		-0.018047		
2.92		-0.018178		
2.93		-0.018308		
2.94		-0.018437		
2.95		-0.018565		
2.96		-0.018693		
2.97		-0.01882		
2.98		-0.018947		
2.99		-0.019072		
3		-0.019197		
3.01		-0.019322		
3.02		-0.019445		
3.03		-0.019568		
3.04		-0.019691		
3.05		-0.019813		
3.06		-0.019934		
3.07		-0.020054		
3.08		-0.020174		
3.09		-0.020293		
3.1		-0.020412		
3.11		-0.02053		
3.12		-0.020647		
3.13		-0.020764		
3.14		-0.02088		
3.15		-0.020996		
3.16		-0.021111		
3.17		-0.021225		
3.18		-0.021339		
3.19		-0.021452		
3.2		-0.021565		
3.21		-0.021677		
3.22		-0.021788		
3.23		-0.021899		
3.24		-0.02201		
3.25		-0.022119		
3.26		-0.022229		
3.27		-0.022337		
3.28		-0.022445		
3.29		-0.022553		
3.3		-0.02266		
3.31		-0.022767		
3.32		-0.022873		
3.33		-0.022978		
3.34		-0.023083		
3.35		-0.023188		
3.36		-0.023291		
3.37		-0.023395		
3.38		-0.023498		
3.39		-0.0236		
3.4		-0.023702		
3.41		-0.023803		
3.42		-0.023904		
3.43		-0.024004		
3.44		-0.024104		
3.45		-0.024204		
3.46		-0.024302		
3.47		-0.024401		
3.48		-0.024499		
3.49		-0.024596		
3.5		-0.024693		
3.51		-0.024789		
3.52		-0.024885		
3.53		-0.024981		
3.54		-0.025075		
3.55		-0.02517		
3.56		-0.025264		
3.57		-0.025357		
3.58		-0.025451		
3.59		-0.025543		
3.6		-0.025635		
3.61		-0.025727		
3.62		-0.025818		
3.63		-0.025909		
3.64		-0.025999		
3.65		-0.026089		
3.66		-0.026179		
3.67		-0.026267		
3.68		-0.026356		
3.69		-0.026444		
3.7		-0.026532		
3.71		-0.026619		
3.72		-0.026706		
3.73		-0.026792		
3.74		-0.026878		
3.75		-0.026963		
3.76		-0.027048		
3.77		-0.027133		
3.78		-0.027217		
3.79		-0.027301		
3.8		-0.027384		
3.81		-0.027467		
3.82		-0.027549		
3.83		-0.027631		
3.84		-0.027713		
3.85		-0.027794		
3.86		-0.027875		
3.87		-0.027955		
3.88		-0.028035		
3.89		-0.028115		
3.9		-0.028194		
3.91		-0.028273		
3.92		-0.028351		
3.93		-0.028429		
3.94		-0.028507		
3.95		-0.028584		
3.96		-0.028661		
3.97		-0.028737		
3.98		-0.028813		
3.99		-0.028889		
4		-0.028964		
4.01		-0.029039		
4.02		-0.029113		
4.03		-0.029187		
4.04		-0.029261		
4.05		-0.029334		
4.06		-0.029407		
4.07		-0.02948		
4.08		-0.029552		
4.09		-0.029624		
4.1		-0.029695		
4.11		-0.029766		
4.12		-0.029837		
4.13		-0.029907		
4.14		-0.029977		
4.15		-0.030047		
4.16		-0.030116		
4.17		-0.030185		
4.18		-0.030254		
4.19		-0.030322		
4.2		-0.03039		
4.21		-0.030457		
4.22		-0.030524		
4.23		-0.030591		
4.24		-0.030658		
4.25		-0.030724		
4.26		-0.03079		
4.27		-0.030855		
4.28		-0.03092		
4.29		-0.030985		
4.3		-0.03105		
4.31		-0.031114		
4.32		-0.031178		
4.33		-0.031241		
4.34		-0.031304		
4.35		-0.031367		
4.36		-0.03143		
4.37		-0.031492		
4.38		-0.031554		
4.39		-0.031615		
4.4		-0.031676		
4.41		-0.031737		
4.42		-0.031798		
4.43		-0.031858		
4.44		-0.031918		
4.45		-0.031978		
4.46		-0.032037		
4.47		-0.032096		
4.48		-0.032155		
4.49		-0.032214		
4.5		-0.032272		
4.51		-0.03233		
4.52		-0.032388		
4.53		-0.032445		
4.54		-0.032502		
4.55		-0.032559		
4.56		-0.032615		
4.57		-0.032671		
4.58		-0.032727		
4.59		-0.032783		
4.6		-0.032838		
4.61		-0.032893		
4.62		-0.032948		
4.63		-0.033002		
4.64		-0.033057		
4.65		-0.033111		
4.66		-0.033164		
4.67		-0.033218		
4.68		-0.033271		
4.69		-0.033324		
4.7		-0.033376		
4.71		-0.033429		
4.72		-0.033481		
4.73		-0.033533		
4.74		-0.033584		
4.75		-0.033636		
4.76		-0.033687		
4.77		-0.033738		
4.78		-0.033788		
4.79		-0.033839		
4.8		-0.033889		
4.81		-0.033939		
4.82		-0.033988		
4.83		-0.034038		
4.84		-0.034087		
4.85		-0.034136		
4.86		-0.034185		
4.87		-0.034233		
4.88		-0.034281		
4.89		-0.034329		
4.9		-0.034377		
4.91		-0.034425		
4.92		-0.034472		
4.93		-0.034519		
4.94		-0.034566		
4.95		-0.034613		
4.96		-0.034659		
4.97		-0.034705		
4.98		-0.034751		
4.99		-0.034797		
5		-0.034843		
5.01		-0.034888		
5.02		-0.034933		
5.03		-0.034978		
5.04		-0.035023		
5.05		-0.035068		
5.06		-0.035112		
5.07		-0.035156		
5.08		-0.0352		
5.09		-0.035244		
5.1		-0.035287		
5.11		-0.035331		
5.12		-0.035374		
5.13		-0.035417		
5.14		-0.03546		
5.15		-0.035502		
5.16		-0.035545		
5.17		-0.035587		
5.18		-0.035629		
5.19		-0.035671		
5.2		-0.035712		
5.21		-0.035754		
5.22		-0.035795		
5.23		-0.035836		
5.24		-0.035877		
5.25		-0.035918		
5.26		-0.035959		
5.27		-0.035999		
5.28		-0.03604		
5.29		-0.03608		
5.3		-0.03612		
5.31		-0.036159		
5.32		-0.036199		
5.33		-0.036238		
5.34		-0.036278		
5.35		-0.036317		
5.36		-0.036356		
5.37		-0.036395		
5.38		-0.036433		
5.39		-0.036472		
5.4		-0.03651		
5.41		-0.036549		
5.42		-0.036587		
5.43		-0.036625		
5.44		-0.036662		
5.45		-0.0367		
5.46		-0.036737		
5.47		-0.036775		
5.48		-0.036812		
5.49		-0.036849		
5.5		-0.036886		
5.51		-0.036923		
5.52		-0.036959		
5.53		-0.036996		
5.54		-0.037032		
5.55		-0.037068		
5.56		-0.037104		
5.57		-0.03714		
5.58		-0.037176		
5.59		-0.037212		
5.6		-0.037248		
5.61		-0.037283		
5.62		-0.037318		
5.63		-0.037354		
5.64		-0.037389		
5.65		-0.037424		
5.66		-0.037458		
5.67		-0.037493		
5.68		-0.037528		
5.69		-0.037562		
5.7		-0.037597		
5.71		-0.037631		
5.72		-0.037665		
5.73		-0.037699		
5.74		-0.037733		
5.75		-0.037767		
5.76		-0.037801		
5.77		-0.037834		
5.78		-0.037868		
5.79		-0.037901		
5.8		-0.037934		
5.81		-0.037967		
5.82		-0.038001		
5.83		-0.038034		
5.84		-0.038066		
5.85		-0.038099		
5.86		-0.038132		
5.87		-0.038164		
5.88		-0.038197		
5.89		-0.038229		
5.9		-0.038262		
5.91		-0.038294		
5.92		-0.038326		
5.93		-0.038358		
5.94		-0.03839		
5.95		-0.038422		
5.96		-0.038453		
5.97		-0.038485		
5.98		-0.038517		
5.99		-0.038548		
6		-0.038579		
6.01		-0.038611		
6.02		-0.038642		
6.03		-0.038673		
6.04		-0.038704		
6.05		-0.038735		
6.06		-0.038766		
6.07		-0.038797		
6.08		-0.038828		
6.09		-0.038858		
6.1		-0.038889		
6.11		-0.03892		
6.12		-0.03895		
6.13		-0.03898		
6.14		-0.039011		
6.15		-0.039041		
6.16		-0.039071		
6.17		-0.039101		
6.18		-0.039131		
6.19		-0.039161		
6.2		-0.039191		
6.21		-0.039221		
6.22		-0.039251		
6.23		-0.03928		
6.24		-0.03931		
6.25		-0.039339		
6.26		-0.039369		
6.27		-0.039398		
6.28		-0.039428		
6.29		-0.039457		
6.3		-0.039486		
6.31		-0.039516		
6.32		-0.039545		
6.33		-0.039574		
6.34		-0.039603		
6.35		-0.039632		
6.36		-0.039661		
6.37		-0.039689		
6.38		-0.039718		
6.39		-0.039747		
6.4		-0.039776		
6.41		-0.039804		
6.42		-0.039833		
6.43		-0.039861		
6.44		-0.03989		
6.45		-0.039918		
6.46		-0.039947		
6.47		-0.039975		
6.48		-0.040003		
6.49		-0.040032		
6.5		-0.04006		
6.51		-0.040088		
6.52		-0.040116		
6.53		-0.040144		
6.54		-0.040172		
6.55		-0.0402		
6.56		-0.040228		
6.57		-0.040256		
6.58		-0.040284		
6.59		-0.040311		
6.6		-0.040339		
6.61		-0.040367		
6.62		-0.040395		
6.63		-0.040422		
6.64		-0.04045		
6.65		-0.040477		
6.66		-0.040505		
6.67		-0.040532		
6.68		-0.04056		
6.69		-0.040587		
6.7		-0.040615		
6.71		-0.040642		
6.72		-0.040669		
6.73		-0.040697		
6.74		-0.040724		
6.75		-0.040751		
6.76		-0.040778		
6.77		-0.040805		
6.78		-0.040832		
6.79		-0.040859		
6.8		-0.040886		
6.81		-0.040913		
6.82		-0.04094		
6.83		-0.040967		
6.84		-0.040994		
6.85		-0.041021		
6.86		-0.041048		
6.87		-0.041075		
6.88		-0.041102		
6.89		-0.041129		
6.9		-0.041155		
6.91		-0.041182		
6.92		-0.041209		
6.93		-0.041235		
6.94		-0.041262		
6.95		-0.041289		
6.96		-0.041315		
6.97		-0.041342		
6.98		-0.041368		
6.99		-0.041395		
7		-0.041421		
7.01		-0.041448		
7.02		-0.041474		
7.03		-0.041501		
7.04		-0.041527		
7.05		-0.041554		
7.06		-0.04158		
7.07		-0.041606		
7.08		-0.041633		
7.09		-0.041659		
7.1		-0.041685		
7.11		-0.041712		
7.12		-0.041738		
7.13		-0.041764		
7.14		-0.04179		
7.15		-0.041816		
7.16		-0.041843		
7.17		-0.041869		
7.18		-0.041895		
7.19		-0.041921		
7.2		-0.041947		
7.21		-0.041973		
7.22		-0.041999		
7.23		-0.042025		
7.24		-0.042051		
7.25		-0.042077		
7.26		-0.042103		
7.27		-0.042129		
7.28		-0.042155		
7.29		-0.042181		
7.3		-0.042207		
7.31		-0.042233		
7.32		-0.042259		
7.33		-0.042285		
7.34		-0.042311		
7.35		-0.042337		
7.36		-0.042363		
7.37		-0.042389		
7.38		-0.042415		
7.39		-0.04244		
7.4		-0.042466		
7.41		-0.042492		
7.42		-0.042518		
7.43		-0.042544		
7.44		-0.042569		
7.45		-0.042595		
7.46		-0.042621		
7.47		-0.042647		
7.48		-0.042672		
7.49		-0.042698		
7.5		-0.042724		
7.51		-0.04275		
7.52		-0.042775		
7.53		-0.042801		
7.54		-0.042827		
7.55		-0.042852		
7.56		-0.042878		
7.57		-0.042904		
7.58		-0.042929		
7.59		-0.042955		
7.6		-0.042981		
7.61		-0.043006		
7.62		-0.043032		
7.63		-0.043057		
7.64		-0.043083		
7.65		-0.043109		
7.66		-0.043134		
7.67		-0.04316		
7.68		-0.043185		
7.69		-0.043211		
7.7		-0.043236		
7.71		-0.043262		
7.72		-0.043287		
7.73		-0.043313		
7.74		-0.043339		
7.75		-0.043364		
7.76		-0.04339		
7.77		-0.043415		
7.78		-0.043441		
7.79		-0.043466		
7.8		-0.043491		
7.81		-0.043517		
7.82		-0.043542		
7.83		-0.043568		
7.84		-0.043593		
7.85		-0.043619		
7.86		-0.043644		
7.87		-0.04367		
7.88		-0.043695		
7.89		-0.043721		
7.9		-0.043746		
7.91		-0.043771		
7.92		-0.043797		
7.93		-0.043822		
7.94		-0.043848		
7.95		-0.043873		
7.96		-0.043898		
7.97		-0.043924		
7.98		-0.043949		
7.99		-0.043975		
8		-0.044		
8.01		-0.044025		
8.02		-0.044051		
8.03		-0.044076		
8.04		-0.044101		
8.05		-0.044127		
8.06		-0.044152		
8.07		-0.044177		
8.08		-0.044203		
8.09		-0.044228		
8.1		-0.044253		
8.11		-0.044279		
8.12		-0.044304		
8.13		-0.044329		
8.14		-0.044355		
8.15		-0.04438		
8.16		-0.044405		
8.17		-0.044431		
8.18		-0.044456		
8.19		-0.044481		
8.2		-0.044507		
8.21		-0.044532		
8.22		-0.044557		
8.23		-0.044582		
8.24		-0.044608		
8.25		-0.044633		
8.26		-0.044658		
8.27		-0.044683		
8.28		-0.044709		
8.29		-0.044734		
8.3		-0.044759		
8.31		-0.044784		
8.32		-0.04481		
8.33		-0.044835		
8.34		-0.04486		
8.35		-0.044885		
8.36		-0.044911		
8.37		-0.044936		
8.38		-0.044961		
8.39		-0.044986		
8.4		-0.045011		
8.41		-0.045037		
8.42		-0.045062		
8.43		-0.045087		
8.44		-0.045112		
8.45		-0.045137		
8.46		-0.045163		
8.47		-0.045188		
8.48		-0.045213		
8.49		-0.045238		
8.5		-0.045263		
8.51		-0.045289		
8.52		-0.045314		
8.53		-0.045339		
8.54		-0.045364		
8.55		-0.045389		
8.56		-0.045414		
8.57		-0.045439		
8.58		-0.045465		
8.59		-0.04549		
8.6		-0.045515		
8.61		-0.04554		
8.62		-0.045565		
8.63		-0.04559		
8.64		-0.045615		
8.65		-0.04564		
8.66		-0.045665		
8.67		-0.045691		
8.68		-0.045716		
8.69		-0.045741		
8.7		-0.045766		
8.71		-0.045791		
8.72		-0.045816		
8.73		-0.045841		
8.74		-0.045866		
8.75		-0.045891		
8.76		-0.045916		
8.77		-0.045941		
8.78		-0.045966		
8.79		-0.045991		
8.8		-0.046016		
8.81		-0.046041		
8.82		-0.046066		
8.83		-0.046091		
8.84		-0.046116		
8.85		-0.046141		
8.86		-0.046166		
8.87		-0.046191		
8.88		-0.046216		
8.89		-0.046241		
8.9		-0.046266		
8.91		-0.046291		
8.92		-0.046316		
8.93		-0.046341		
8.94		-0.046366		
8.95		-0.046391		
8.96		-0.046416		
8.97		-0.046441		
8.98		-0.046466		
8.99		-0.046491		
9		-0.046516		
9.01		-0.04654		
9.02		-0.046565		
9.03		-0.04659		
9.04		-0.046615		
9.05		-0.04664		
9.06		-0.046665		
9.07		-0.04669		
9.08		-0.046715		
9.09		-0.046739		
9.1		-0.046764		
9.11		-0.046789		
9.12		-0.046814		
9.13		-0.046839		
9.14		-0.046864		
9.15		-0.046888		
9.16		-0.046913		
9.17		-0.046938		
9.18		-0.046963		
9.19		-0.046987		
9.2		-0.047012		
9.21		-0.047037		
9.22		-0.047062		
9.23		-0.047086		
9.24		-0.047111		
9.25		-0.047136		
9.26		-0.047161		
9.27		-0.047185		
9.28		-0.04721		
9.29		-0.047235		
9.3		-0.047259		
9.31		-0.047284		
9.32		-0.047309		
9.33		-0.047333		
9.34		-0.047358		
9.35		-0.047383		
9.36		-0.047407		
9.37		-0.047432		
9.38		-0.047457		
9.39		-0.047481		
9.4		-0.047506		
9.41		-0.04753		
9.42		-0.047555		
9.43		-0.047579		
9.44		-0.047604		
9.45		-0.047628		
9.46		-0.047653		
9.47		-0.047678		
9.48		-0.047702		
9.49		-0.047727		
9.5		-0.047751		
9.51		-0.047776		
9.52		-0.0478		
9.53		-0.047824		
9.54		-0.047849		
9.55		-0.047873		
9.56		-0.047898		
9.57		-0.047922		
9.58		-0.047947		
9.59		-0.047971		
9.6		-0.047995		
9.61		-0.04802		
9.62		-0.048044		
9.63		-0.048068		
9.64		-0.048093		
9.65		-0.048117		
9.66		-0.048141		
9.67		-0.048166		
9.68		-0.04819		
9.69		-0.048214		
9.7		-0.048239		
9.71		-0.048263		
9.72		-0.048287		
9.73		-0.048311		
9.74		-0.048336		
9.75		-0.04836		
9.76		-0.048384		
9.77		-0.048408		
9.78		-0.048432		
9.79		-0.048456		
9.8		-0.048481		
9.81		-0.048505		
9.82		-0.048529		
9.83		-0.048553		
9.84		-0.048577		
9.85		-0.048601		
9.86		-0.048625		
9.87		-0.048649		
9.88		-0.048673		
9.89		-0.048697		
9.9		-0.048721		
9.91		-0.048745		
9.92		-0.048769		
9.93		-0.048793		
9.94		-0.048817		
9.95		-0.048841		
9.96		-0.048865		
9.97		-0.048889		
9.98		-0.048913		
9.99		-0.048937		
10		-0.048961		
10.01		-0.048985		
10.02		-0.049009		
10.03		-0.049032		
10.04		-0.049056		
10.05		-0.04908		
10.06		-0.049104		
10.07		-0.049128		
10.08		-0.049151		
10.09		-0.049175		
10.1		-0.049199		
10.11		-0.049223		
10.12		-0.049246		
10.13		-0.04927		
10.14		-0.049294		
10.15		-0.049317		
10.16		-0.049341		
10.17		-0.049365		
10.18		-0.049388		
10.19		-0.049412		
10.2		-0.049435		
10.21		-0.049459		
10.22		-0.049482		
10.23		-0.049506		
10.24		-0.04953		
10.25		-0.049553		
10.26		-0.049577		
10.27		-0.0496		
10.28		-0.049623		
10.29		-0.049647		
10.3		-0.04967		
10.31		-0.049694		
10.32		-0.049717		
10.33		-0.04974		
10.34		-0.049764		
10.35		-0.049787		
10.36		-0.04981		
10.37		-0.049834		
10.38		-0.049857		
10.39		-0.04988		
10.4		-0.049904		
10.41		-0.049927		
10.42		-0.04995		
10.43		-0.049973		
10.44		-0.049996		
10.45		-0.05002		
10.46		-0.050043		
10.47		-0.050066		
10.48		-0.050089		
10.49		-0.050112		
10.5		-0.050135		
10.51		-0.050158		
10.52		-0.050181		
10.53		-0.050204		
10.54		-0.050227		
10.55		-0.05025		
10.56		-0.050273		
10.57		-0.050296		
10.58		-0.050319		
10.59		-0.050342		
10.6		-0.050365		
10.61		-0.050388		
10.62		-0.050411		
10.63		-0.050434		
10.64		-0.050457		
10.65		-0.050479		
10.66		-0.050502		
10.67		-0.050525		
10.68		-0.050548		
10.69		-0.05057		
10.7		-0.050593		
10.71		-0.050616		
10.72		-0.050638		
10.73		-0.050661		
10.74		-0.050684		
10.75		-0.050706		
10.76		-0.050729		
10.77		-0.050752		
10.78		-0.050774		
10.79		-0.050797		
10.8		-0.050819		
10.81		-0.050842		
10.82		-0.050864		
10.83		-0.050887		
10.84		-0.050909		
10.85		-0.050932		
10.86		-0.050954		
10.87		-0.050976		
10.88		-0.050999		
10.89		-0.051021		
10.9		-0.051043		
10.91		-0.051066		
10.92		-0.051088		
10.93		-0.05111		
10.94		-0.051132		
10.95		-0.051155		
10.96		-0.051177		
10.97		-0.051199		
10.98		-0.051221		
10.99		-0.051243		
11		-0.051266		
11.01		-0.051288		
11.02		-0.05131		
11.03		-0.051332		
11.04		-0.051354		
11.05		-0.051376		
11.06		-0.051398		
11.07		-0.05142		
11.08		-0.051442		
11.09		-0.051464		
11.1		-0.051486		
11.11		-0.051508		
11.12		-0.051529		
11.13		-0.051551		
11.14		-0.051573		
11.15		-0.051595		
11.16		-0.051617		
11.17		-0.051639		
11.18		-0.05166		
11.19		-0.051682		
11.2		-0.051704		
11.21		-0.051725		
11.22		-0.051747		
11.23		-0.051769		
11.24		-0.05179		
11.25		-0.051812		
11.26		-0.051834		
11.27		-0.051855		
11.28		-0.051877		
11.29		-0.051898		
11.3		-0.05192		
11.31		-0.051941		
11.32		-0.051963		
11.33		-0.051984		
11.34		-0.052005		
11.35		-0.052027		
11.36		-0.052048		
11.37		-0.05207		
11.38		-0.052091		
11.39		-0.052112		
11.4		-0.052133		
11.41		-0.052155		
11.42		-0.052176		
11.43		-0.052197		
11.44		-0.052218		
