tau [fm]		Pi [fm^-4]
0.25		0
0.26		-0.38358		
0.27		-0.66167		
0.28		-0.84752		
0.29		-0.96393		
0.3		-1.0284		
0.31		-1.0543		
0.32		-1.052		
0.33		-1.0293		
0.34		-0.99221		
0.35		-0.94544		
0.36		-0.89242		
0.37		-0.83581		
0.38		-0.77758		
0.39		-0.7192		
0.4		-0.66172		
0.41		-0.60591		
0.42		-0.5523		
0.43		-0.50125		
0.44		-0.45294		
0.45		-0.40751		
0.46		-0.36497		
0.47		-0.3253		
0.48		-0.28843		
0.49		-0.25426		
0.5		-0.22268		
0.51		-0.19355		
0.52		-0.16675		
0.53		-0.14214		
0.54		-0.11956		
0.55		-0.098897		
0.56		-0.080007		
0.57		-0.062767		
0.58		-0.047055		
0.59		-0.032757		
0.6		-0.019765		
0.61		-0.0079776		
0.62		0.0026996		
0.63		0.012355		
0.64		0.02107		
0.65		0.028922		
0.66		0.03598		
0.67		0.04231		
0.68		0.047972		
0.69		0.053022		
0.7		0.05751		
0.71		0.061485		
0.72		0.064988		
0.73		0.068061		
0.74		0.07074		
0.75		0.073058		
0.76		0.075047		
0.77		0.076734		
0.78		0.078147		
0.79		0.079309		
0.8		0.080241		
0.81		0.080965		
0.82		0.081498		
0.83		0.081859		
0.84		0.082061		
0.85		0.08212		
0.86		0.082049		
0.87		0.081859		
0.88		0.081563		
0.89		0.081169		
0.9		0.080688		
0.91		0.080128		
0.92		0.079497		
0.93		0.078801		
0.94		0.078048		
0.95		0.077244		
0.96		0.076394		
0.97		0.075504		
0.98		0.074578		
0.99		0.07362		
1		0.072634		
1.01		0.071625		
1.02		0.070595		
1.03		0.069547		
1.04		0.068485		
1.05		0.06741		
1.06		0.066326		
1.07		0.065234		
1.08		0.064136		
1.09		0.063034		
1.1		0.06193		
1.11		0.060826		
1.12		0.059722		
1.13		0.058619		
1.14		0.05752		
1.15		0.056425		
1.16		0.055335		
1.17		0.054251		
1.18		0.053174		
1.19		0.052104		
1.2		0.051042		
1.21		0.049989		
1.22		0.048944		
1.23		0.04791		
1.24		0.046885		
1.25		0.04587		
1.26		0.044866		
1.27		0.043873		
1.28		0.042892		
1.29		0.041921		
1.3		0.040962		
1.31		0.040015		
1.32		0.039079		
1.33		0.038156		
1.34		0.037244		
1.35		0.036344		
1.36		0.035456		
1.37		0.034581		
1.38		0.033717		
1.39		0.032865		
1.4		0.032026		
1.41		0.031198		
1.42		0.030382		
1.43		0.029578		
1.44		0.028786		
1.45		0.028006		
1.46		0.027237		
1.47		0.026479		
1.48		0.025733		
1.49		0.024998		
1.5		0.024275		
1.51		0.023562		
1.52		0.02286		
1.53		0.022169		
1.54		0.021489		
1.55		0.020819		
1.56		0.020159		
1.57		0.01951		
1.58		0.018871		
1.59		0.018242		
1.6		0.017622		
1.61		0.017013		
1.62		0.016412		
1.63		0.015822		
1.64		0.01524		
1.65		0.014667		
1.66		0.014104		
1.67		0.013549		
1.68		0.013003		
1.69		0.012465		
1.7		0.011936		
1.71		0.011415		
1.72		0.010901		
1.73		0.010396		
1.74		0.009899		
1.75		0.0094093		
1.76		0.0089271		
1.77		0.0084522		
1.78		0.0079846		
1.79		0.0075242		
1.8		0.0070707		
1.81		0.006624		
1.82		0.0061841		
1.83		0.0057508		
1.84		0.0053239		
1.85		0.0049034		
1.86		0.0044891		
1.87		0.0040809		
1.88		0.0036786		
1.89		0.0032823		
1.9		0.0028917		
1.91		0.0025068		
1.92		0.0021274		
1.93		0.0017534		
1.94		0.0013847		
1.95		0.0010212		
1.96		0.00066289		
1.97		0.00030955		
1.98		-3.8884e-05		
1.99		-0.00038251		
2		-0.00072142		
2.01		-0.0010557		
2.02		-0.0013855		
2.03		-0.0017108		
2.04		-0.0020318		
2.05		-0.0023485		
2.06		-0.0026611		
2.07		-0.0029696		
2.08		-0.003274		
2.09		-0.0035746		
2.1		-0.0038712		
2.11		-0.0041642		
2.12		-0.0044534		
2.13		-0.004739		
2.14		-0.0050211		
2.15		-0.0052997		
2.16		-0.0055749		
2.17		-0.0058467		
2.18		-0.0061153		
2.19		-0.0063807		
2.2		-0.006643		
2.21		-0.0069022		
2.22		-0.0071583		
2.23		-0.0074115		
2.24		-0.0076619		
2.25		-0.0079093		
2.26		-0.008154		
2.27		-0.008396		
2.28		-0.0086353		
2.29		-0.008872		
2.3		-0.0091061		
2.31		-0.0093377		
2.32		-0.0095669		
2.33		-0.0097936		
2.34		-0.010018		
2.35		-0.01024		
2.36		-0.01046		
2.37		-0.010677		
2.38		-0.010892		
2.39		-0.011106		
2.4		-0.011317		
2.41		-0.011526		
2.42		-0.011732		
2.43		-0.011937		
2.44		-0.01214		
2.45		-0.012341		
2.46		-0.012541		
2.47		-0.012738		
2.48		-0.012933		
2.49		-0.013127		
2.5		-0.013319		
2.51		-0.013509		
2.52		-0.013698		
2.53		-0.013884		
2.54		-0.01407		
2.55		-0.014253		
2.56		-0.014435		
2.57		-0.014616		
2.58		-0.014795		
2.59		-0.014972		
2.6		-0.015148		
2.61		-0.015323		
2.62		-0.015496		
2.63		-0.015667		
2.64		-0.015838		
2.65		-0.016007		
2.66		-0.016174		
2.67		-0.01634		
2.68		-0.016505		
2.69		-0.016669		
2.7		-0.016832		
2.71		-0.016993		
2.72		-0.017153		
2.73		-0.017312		
2.74		-0.017469		
2.75		-0.017626		
2.76		-0.017781		
2.77		-0.017935		
2.78		-0.018088		
2.79		-0.01824		
2.8		-0.018391		
2.81		-0.018541		
2.82		-0.01869		
2.83		-0.018837		
2.84		-0.018984		
2.85		-0.01913		
2.86		-0.019274		
2.87		-0.019418		
2.88		-0.019561		
2.89		-0.019702		
2.9		-0.019843		
2.91		-0.019983		
2.92		-0.020122		
2.93		-0.02026		
2.94		-0.020397		
2.95		-0.020533		
2.96		-0.020668		
2.97		-0.020803		
2.98		-0.020936		
2.99		-0.021069		
3		-0.021201		
3.01		-0.021332		
3.02		-0.021462		
3.03		-0.021591		
3.04		-0.02172		
3.05		-0.021847		
3.06		-0.021974		
3.07		-0.0221		
3.08		-0.022226		
3.09		-0.02235		
3.1		-0.022474		
3.11		-0.022597		
3.12		-0.022719		
3.13		-0.022841		
3.14		-0.022962		
3.15		-0.023082		
3.16		-0.023201		
3.17		-0.02332		
3.18		-0.023438		
3.19		-0.023555		
3.2		-0.023671		
3.21		-0.023787		
3.22		-0.023902		
3.23		-0.024017		
3.24		-0.024131		
3.25		-0.024244		
3.26		-0.024356		
3.27		-0.024468		
3.28		-0.024579		
3.29		-0.024689		
3.3		-0.024799		
3.31		-0.024908		
3.32		-0.025017		
3.33		-0.025125		
3.34		-0.025232		
3.35		-0.025339		
3.36		-0.025445		
3.37		-0.02555		
3.38		-0.025655		
3.39		-0.025759		
3.4		-0.025863		
3.41		-0.025966		
3.42		-0.026068		
3.43		-0.02617		
3.44		-0.026271		
3.45		-0.026372		
3.46		-0.026472		
3.47		-0.026571		
3.48		-0.02667		
3.49		-0.026768		
3.5		-0.026866		
3.51		-0.026963		
3.52		-0.02706		
3.53		-0.027156		
3.54		-0.027252		
3.55		-0.027347		
3.56		-0.027441		
3.57		-0.027535		
3.58		-0.027628		
3.59		-0.027721		
3.6		-0.027813		
3.61		-0.027905		
3.62		-0.027996		
3.63		-0.028087		
3.64		-0.028177		
3.65		-0.028267		
3.66		-0.028356		
3.67		-0.028445		
3.68		-0.028533		
3.69		-0.028621		
3.7		-0.028708		
3.71		-0.028794		
3.72		-0.028881		
3.73		-0.028966		
3.74		-0.029051		
3.75		-0.029136		
3.76		-0.02922		
3.77		-0.029304		
3.78		-0.029387		
3.79		-0.02947		
3.8		-0.029552		
3.81		-0.029634		
3.82		-0.029716		
3.83		-0.029796		
3.84		-0.029877		
3.85		-0.029957		
3.86		-0.030036		
3.87		-0.030115		
3.88		-0.030194		
3.89		-0.030272		
3.9		-0.03035		
3.91		-0.030427		
3.92		-0.030504		
3.93		-0.03058		
3.94		-0.030656		
3.95		-0.030732		
3.96		-0.030807		
3.97		-0.030881		
3.98		-0.030955		
3.99		-0.031029		
4		-0.031103		
4.01		-0.031175		
4.02		-0.031248		
4.03		-0.03132		
4.04		-0.031392		
4.05		-0.031463		
4.06		-0.031534		
4.07		-0.031604		
4.08		-0.031674		
4.09		-0.031744		
4.1		-0.031813		
4.11		-0.031882		
4.12		-0.03195		
4.13		-0.032019		
4.14		-0.032086		
4.15		-0.032153		
4.16		-0.03222		
4.17		-0.032287		
4.18		-0.032353		
4.19		-0.032419		
4.2		-0.032484		
4.21		-0.032549		
4.22		-0.032614		
4.23		-0.032678		
4.24		-0.032742		
4.25		-0.032805		
4.26		-0.032868		
4.27		-0.032931		
4.28		-0.032994		
4.29		-0.033056		
4.3		-0.033117		
4.31		-0.033179		
4.32		-0.03324		
4.33		-0.0333		
4.34		-0.033361		
4.35		-0.033421		
4.36		-0.03348		
4.37		-0.03354		
4.38		-0.033599		
4.39		-0.033657		
4.4		-0.033716		
4.41		-0.033774		
4.42		-0.033831		
4.43		-0.033888		
4.44		-0.033945		
4.45		-0.034002		
4.46		-0.034058		
4.47		-0.034114		
4.48		-0.03417		
4.49		-0.034226		
4.5		-0.034281		
4.51		-0.034335		
4.52		-0.03439		
4.53		-0.034444		
4.54		-0.034498		
4.55		-0.034551		
4.56		-0.034605		
4.57		-0.034658		
4.58		-0.03471		
4.59		-0.034763		
4.6		-0.034815		
4.61		-0.034866		
4.62		-0.034918		
4.63		-0.034969		
4.64		-0.03502		
4.65		-0.035071		
4.66		-0.035121		
4.67		-0.035171		
4.68		-0.035221		
4.69		-0.035271		
4.7		-0.03532		
4.71		-0.035369		
4.72		-0.035418		
4.73		-0.035466		
4.74		-0.035514		
4.75		-0.035562		
4.76		-0.03561		
4.77		-0.035657		
4.78		-0.035705		
4.79		-0.035751		
4.8		-0.035798		
4.81		-0.035845		
4.82		-0.035891		
4.83		-0.035937		
4.84		-0.035982		
4.85		-0.036028		
4.86		-0.036073		
4.87		-0.036118		
4.88		-0.036163		
4.89		-0.036207		
4.9		-0.036251		
4.91		-0.036295		
4.92		-0.036339		
4.93		-0.036383		
4.94		-0.036426		
4.95		-0.036469		
4.96		-0.036512		
4.97		-0.036555		
4.98		-0.036597		
4.99		-0.036639		
5		-0.036681		
5.01		-0.036723		
5.02		-0.036765		
5.03		-0.036806		
5.04		-0.036847		
5.05		-0.036888		
5.06		-0.036929		
5.07		-0.03697		
5.08		-0.03701		
5.09		-0.03705		
5.1		-0.03709		
5.11		-0.03713		
5.12		-0.03717		
5.13		-0.037209		
5.14		-0.037248		
5.15		-0.037287		
5.16		-0.037326		
5.17		-0.037365		
5.18		-0.037403		
5.19		-0.037441		
5.2		-0.037479		
5.21		-0.037517		
5.22		-0.037555		
5.23		-0.037592		
5.24		-0.03763		
5.25		-0.037667		
5.26		-0.037704		
5.27		-0.037741		
5.28		-0.037777		
5.29		-0.037814		
5.3		-0.03785		
5.31		-0.037887		
5.32		-0.037923		
5.33		-0.037958		
5.34		-0.037994		
5.35		-0.03803		
5.36		-0.038065		
5.37		-0.0381		
5.38		-0.038135		
5.39		-0.03817		
5.4		-0.038205		
5.41		-0.03824		
5.42		-0.038274		
5.43		-0.038308		
5.44		-0.038343		
5.45		-0.038377		
5.46		-0.03841		
5.47		-0.038444		
5.48		-0.038478		
5.49		-0.038511		
5.5		-0.038545		
5.51		-0.038578		
5.52		-0.038611		
5.53		-0.038644		
5.54		-0.038677		
5.55		-0.038709		
5.56		-0.038742		
5.57		-0.038774		
5.58		-0.038806		
5.59		-0.038839		
5.6		-0.038871		
5.61		-0.038902		
5.62		-0.038934		
5.63		-0.038966		
5.64		-0.038997		
5.65		-0.039029		
5.66		-0.03906		
5.67		-0.039091		
5.68		-0.039122		
5.69		-0.039153		
5.7		-0.039184		
5.71		-0.039215		
5.72		-0.039246		
5.73		-0.039276		
5.74		-0.039306		
5.75		-0.039337		
5.76		-0.039367		
5.77		-0.039397		
5.78		-0.039427		
5.79		-0.039457		
5.8		-0.039487		
5.81		-0.039516		
5.82		-0.039546		
5.83		-0.039576		
5.84		-0.039605		
5.85		-0.039634		
5.86		-0.039663		
5.87		-0.039693		
5.88		-0.039722		
5.89		-0.039751		
5.9		-0.039779		
5.91		-0.039808		
5.92		-0.039837		
5.93		-0.039865		
5.94		-0.039894		
5.95		-0.039922		
5.96		-0.039951		
5.97		-0.039979		
5.98		-0.040007		
5.99		-0.040035		
6		-0.040063		
6.01		-0.040091		
6.02		-0.040119		
6.03		-0.040147		
6.04		-0.040174		
6.05		-0.040202		
6.06		-0.040229		
6.07		-0.040257		
6.08		-0.040284		
6.09		-0.040312		
6.1		-0.040339		
6.11		-0.040366		
6.12		-0.040393		
6.13		-0.04042		
6.14		-0.040447		
6.15		-0.040474		
6.16		-0.040501		
6.17		-0.040528		
6.18		-0.040554		
6.19		-0.040581		
6.2		-0.040608		
6.21		-0.040634		
6.22		-0.040661		
6.23		-0.040687		
6.24		-0.040713		
6.25		-0.04074		
6.26		-0.040766		
6.27		-0.040792		
6.28		-0.040818		
6.29		-0.040844		
6.3		-0.04087		
6.31		-0.040896		
6.32		-0.040922		
6.33		-0.040948		
6.34		-0.040974		
6.35		-0.041		
6.36		-0.041025		
6.37		-0.041051		
6.38		-0.041076		
6.39		-0.041102		
6.4		-0.041127		
6.41		-0.041153		
6.42		-0.041178		
6.43		-0.041204		
6.44		-0.041229		
6.45		-0.041254		
6.46		-0.04128		
6.47		-0.041305		
6.48		-0.04133		
6.49		-0.041355		
6.5		-0.04138		
6.51		-0.041405		
6.52		-0.04143		
6.53		-0.041455		
6.54		-0.04148		
6.55		-0.041505		
6.56		-0.04153		
6.57		-0.041554		
6.58		-0.041579		
6.59		-0.041604		
6.6		-0.041628		
6.61		-0.041653		
6.62		-0.041678		
6.63		-0.041702		
6.64		-0.041727		
6.65		-0.041751		
6.66		-0.041776		
6.67		-0.0418		
6.68		-0.041825		
6.69		-0.041849		
6.7		-0.041873		
6.71		-0.041898		
6.72		-0.041922		
6.73		-0.041946		
6.74		-0.041971		
6.75		-0.041995		
6.76		-0.042019		
6.77		-0.042043		
6.78		-0.042067		
6.79		-0.042091		
6.8		-0.042115		
6.81		-0.04214		
6.82		-0.042164		
6.83		-0.042188		
6.84		-0.042212		
6.85		-0.042236		
6.86		-0.042259		
6.87		-0.042283		
6.88		-0.042307		
6.89		-0.042331		
6.9		-0.042355		
6.91		-0.042379		
6.92		-0.042403		
6.93		-0.042426		
6.94		-0.04245		
6.95		-0.042474		
6.96		-0.042498		
6.97		-0.042521		
6.98		-0.042545		
6.99		-0.042569		
7		-0.042592		
7.01		-0.042616		
7.02		-0.04264		
7.03		-0.042663		
7.04		-0.042687		
7.05		-0.042711		
7.06		-0.042734		
7.07		-0.042758		
7.08		-0.042781		
7.09		-0.042805		
7.1		-0.042828		
7.11		-0.042852		
7.12		-0.042875		
7.13		-0.042899		
7.14		-0.042922		
7.15		-0.042946		
7.16		-0.042969		
7.17		-0.042992		
7.18		-0.043016		
7.19		-0.043039		
7.2		-0.043063		
7.21		-0.043086		
7.22		-0.043109		
7.23		-0.043133		
7.24		-0.043156		
7.25		-0.043179		
7.26		-0.043203		
7.27		-0.043226		
7.28		-0.043249		
7.29		-0.043273		
7.3		-0.043296		
7.31		-0.043319		
7.32		-0.043342		
7.33		-0.043366		
7.34		-0.043389		
7.35		-0.043412		
7.36		-0.043435		
7.37		-0.043459		
7.38		-0.043482		
7.39		-0.043505		
7.4		-0.043528		
7.41		-0.043551		
7.42		-0.043575		
7.43		-0.043598		
7.44		-0.043621		
7.45		-0.043644		
7.46		-0.043667		
7.47		-0.043691		
7.48		-0.043714		
7.49		-0.043737		
7.5		-0.04376		
7.51		-0.043783		
7.52		-0.043806		
7.53		-0.043829		
7.54		-0.043853		
7.55		-0.043876		
7.56		-0.043899		
7.57		-0.043922		
7.58		-0.043945		
7.59		-0.043968		
7.6		-0.043991		
7.61		-0.044014		
7.62		-0.044038		
7.63		-0.044061		
7.64		-0.044084		
7.65		-0.044107		
7.66		-0.04413		
7.67		-0.044153		
7.68		-0.044176		
7.69		-0.044199		
7.7		-0.044222		
7.71		-0.044245		
7.72		-0.044268		
7.73		-0.044292		
7.74		-0.044315		
7.75		-0.044338		
7.76		-0.044361		
7.77		-0.044384		
7.78		-0.044407		
7.79		-0.04443		
7.8		-0.044453		
7.81		-0.044476		
7.82		-0.044499		
7.83		-0.044522		
7.84		-0.044545		
7.85		-0.044568		
7.86		-0.044591		
7.87		-0.044615		
7.88		-0.044638		
7.89		-0.044661		
7.9		-0.044684		
7.91		-0.044707		
7.92		-0.04473		
7.93		-0.044753		
7.94		-0.044776		
7.95		-0.044799		
7.96		-0.044822		
7.97		-0.044845		
7.98		-0.044868		
7.99		-0.044891		
8		-0.044914		
8.01		-0.044937		
8.02		-0.044961		
8.03		-0.044984		
8.04		-0.045007		
8.05		-0.04503		
8.06		-0.045053		
8.07		-0.045076		
8.08		-0.045099		
8.09		-0.045122		
8.1		-0.045145		
8.11		-0.045168		
8.12		-0.045191		
8.13		-0.045214		
8.14		-0.045237		
8.15		-0.04526		
8.16		-0.045283		
8.17		-0.045307		
8.18		-0.04533		
8.19		-0.045353		
8.2		-0.045376		
8.21		-0.045399		
8.22		-0.045422		
8.23		-0.045445		
8.24		-0.045468		
8.25		-0.045491		
8.26		-0.045514		
8.27		-0.045537		
8.28		-0.04556		
8.29		-0.045583		
8.3		-0.045607		
8.31		-0.04563		
8.32		-0.045653		
8.33		-0.045676		
8.34		-0.045699		
8.35		-0.045722		
8.36		-0.045745		
8.37		-0.045768		
8.38		-0.045791		
8.39		-0.045814		
8.4		-0.045837		
8.41		-0.04586		
8.42		-0.045884		
8.43		-0.045907		
8.44		-0.04593		
8.45		-0.045953		
8.46		-0.045976		
8.47		-0.045999		
8.48		-0.046022		
8.49		-0.046045		
8.5		-0.046068		
8.51		-0.046091		
8.52		-0.046114		
8.53		-0.046137		
8.54		-0.046161		
8.55		-0.046184		
8.56		-0.046207		
8.57		-0.04623		
8.58		-0.046253		
8.59		-0.046276		
8.6		-0.046299		
8.61		-0.046322		
8.62		-0.046345		
8.63		-0.046368		
8.64		-0.046391		
8.65		-0.046414		
8.66		-0.046438		
8.67		-0.046461		
8.68		-0.046484		
8.69		-0.046507		
8.7		-0.04653		
8.71		-0.046553		
8.72		-0.046576		
8.73		-0.046599		
8.74		-0.046622		
8.75		-0.046645		
8.76		-0.046668		
8.77		-0.046691		
8.78		-0.046714		
8.79		-0.046738		
8.8		-0.046761		
8.81		-0.046784		
8.82		-0.046807		
8.83		-0.04683		
8.84		-0.046853		
8.85		-0.046876		
8.86		-0.046899		
8.87		-0.046922		
8.88		-0.046945		
8.89		-0.046968		
8.9		-0.046991		
8.91		-0.047014		
8.92		-0.047037		
8.93		-0.04706		
8.94		-0.047083		
8.95		-0.047106		
8.96		-0.047129		
8.97		-0.047153		
8.98		-0.047176		
8.99		-0.047199		
9		-0.047222		
9.01		-0.047245		
9.02		-0.047268		
9.03		-0.047291		
9.04		-0.047314		
9.05		-0.047337		
9.06		-0.04736		
9.07		-0.047383		
9.08		-0.047406		
9.09		-0.047429		
9.1		-0.047452		
9.11		-0.047475		
9.12		-0.047498		
9.13		-0.047521		
9.14		-0.047544		
9.15		-0.047567		
9.16		-0.04759		
9.17		-0.047613		
9.18		-0.047636		
9.19		-0.047659		
9.2		-0.047682		
9.21		-0.047705		
9.22		-0.047727		
9.23		-0.04775		
9.24		-0.047773		
9.25		-0.047796		
9.26		-0.047819		
9.27		-0.047842		
9.28		-0.047865		
9.29		-0.047888		
9.3		-0.047911		
9.31		-0.047934		
9.32		-0.047957		
9.33		-0.04798		
9.34		-0.048003		
9.35		-0.048025		
9.36		-0.048048		
9.37		-0.048071		
9.38		-0.048094		
9.39		-0.048117		
9.4		-0.04814		
9.41		-0.048163		
9.42		-0.048185		
9.43		-0.048208		
9.44		-0.048231		
9.45		-0.048254		
9.46		-0.048277		
9.47		-0.0483		
9.48		-0.048322		
9.49		-0.048345		
9.5		-0.048368		
9.51		-0.048391		
9.52		-0.048414		
9.53		-0.048436		
9.54		-0.048459		
9.55		-0.048482		
9.56		-0.048505		
9.57		-0.048527		
9.58		-0.04855		
9.59		-0.048573		
9.6		-0.048596		
9.61		-0.048618		
9.62		-0.048641		
9.63		-0.048664		
9.64		-0.048687		
9.65		-0.048709		
9.66		-0.048732		
9.67		-0.048755		
9.68		-0.048777		
9.69		-0.0488		
9.7		-0.048823		
9.71		-0.048845		
9.72		-0.048868		
9.73		-0.04889		
9.74		-0.048913		
9.75		-0.048936		
9.76		-0.048958		
9.77		-0.048981		
9.78		-0.049003		
9.79		-0.049026		
9.8		-0.049049		
9.81		-0.049071		
9.82		-0.049094		
9.83		-0.049116		
9.84		-0.049139		
9.85		-0.049161		
9.86		-0.049184		
9.87		-0.049206		
9.88		-0.049229		
9.89		-0.049251		
9.9		-0.049274		
9.91		-0.049296		
9.92		-0.049319		
9.93		-0.049341		
9.94		-0.049363		
9.95		-0.049386		
9.96		-0.049408		
9.97		-0.049431		
9.98		-0.049453		
9.99		-0.049475		
10		-0.049498		
10.01		-0.04952		
10.02		-0.049542		
10.03		-0.049565		
10.04		-0.049587		
10.05		-0.049609		
10.06		-0.049632		
10.07		-0.049654		
10.08		-0.049676		
10.09		-0.049698		
10.1		-0.049721		
10.11		-0.049743		
10.12		-0.049765		
10.13		-0.049787		
10.14		-0.04981		
10.15		-0.049832		
10.16		-0.049854		
10.17		-0.049876		
10.18		-0.049898		
10.19		-0.04992		
10.2		-0.049943		
10.21		-0.049965		
10.22		-0.049987		
10.23		-0.050009		
10.24		-0.050031		
10.25		-0.050053		
10.26		-0.050075		
10.27		-0.050097		
10.28		-0.050119		
10.29		-0.050141		
10.3		-0.050163		
10.31		-0.050185		
10.32		-0.050207		
10.33		-0.050229		
10.34		-0.050251		
10.35		-0.050273		
10.36		-0.050295		
10.37		-0.050317		
10.38		-0.050339		
10.39		-0.050361		
10.4		-0.050382		
10.41		-0.050404		
10.42		-0.050426		
10.43		-0.050448		
10.44		-0.05047		
10.45		-0.050491		
10.46		-0.050513		
10.47		-0.050535		
10.48		-0.050557		
10.49		-0.050579		
10.5		-0.0506		
10.51		-0.050622		
10.52		-0.050644		
10.53		-0.050665		
10.54		-0.050687		
10.55		-0.050709		
10.56		-0.05073		
10.57		-0.050752		
10.58		-0.050773		
10.59		-0.050795		
10.6		-0.050817		
10.61		-0.050838		
10.62		-0.05086		
10.63		-0.050881		
10.64		-0.050903		
10.65		-0.050924		
10.66		-0.050946		
10.67		-0.050967		
10.68		-0.050989		
10.69		-0.05101		
10.7		-0.051031		
10.71		-0.051053		
10.72		-0.051074		
10.73		-0.051096		
10.74		-0.051117		
10.75		-0.051138		
10.76		-0.05116		
10.77		-0.051181		
10.78		-0.051202		
10.79		-0.051224		
10.8		-0.051245		
10.81		-0.051266		
10.82		-0.051287		
10.83		-0.051308		
10.84		-0.05133		
10.85		-0.051351		
10.86		-0.051372		
10.87		-0.051393		
10.88		-0.051414		
10.89		-0.051435		
10.9		-0.051456		
10.91		-0.051477		
10.92		-0.051499		
10.93		-0.05152		
10.94		-0.051541		
10.95		-0.051562		
10.96		-0.051583		
10.97		-0.051604		
10.98		-0.051624		
10.99		-0.051645		
11		-0.051666		
11.01		-0.051687		
11.02		-0.051708		
11.03		-0.051729		
11.04		-0.05175		
11.05		-0.051771		
11.06		-0.051791		
11.07		-0.051812		
11.08		-0.051833		
11.09		-0.051854		
11.1		-0.051874		
11.11		-0.051895		
11.12		-0.051916		
11.13		-0.051937		
11.14		-0.051957		
11.15		-0.051978		
11.16		-0.051999		
11.17		-0.052019		
11.18		-0.05204		
11.19		-0.05206		
11.2		-0.052081		
11.21		-0.052101		
11.22		-0.052122		
11.23		-0.052142		
11.24		-0.052163		
11.25		-0.052183		
11.26		-0.052204		
11.27		-0.052224		
11.28		-0.052245		
11.29		-0.052265		
11.3		-0.052285		
11.31		-0.052306		
11.32		-0.052326		
11.33		-0.052346		
11.34		-0.052367		
11.35		-0.052387		
11.36		-0.052407		
11.37		-0.052427		
11.38		-0.052448		
11.39		-0.052468		
11.4		-0.052488		
11.41		-0.052508		
11.42		-0.052528		
11.43		-0.052548		
11.44		-0.052569		
11.45		-0.052589		
11.46		-0.052609		
