tau [fm]		T [fm^-1]
0.25		3.0406
0.26		3.0026		
0.27		2.9669		
0.28		2.9331		
0.29		2.9012		
0.3		2.871		
0.31		2.8423		
0.32		2.8149		
0.33		2.7889		
0.34		2.764		
0.35		2.7401		
0.36		2.7173		
0.37		2.6954		
0.38		2.6744		
0.39		2.6542		
0.4		2.6347		
0.41		2.6159		
0.42		2.5978		
0.43		2.5803		
0.44		2.5634		
0.45		2.547		
0.46		2.5311		
0.47		2.5157		
0.48		2.5008		
0.49		2.4863		
0.5		2.4722		
0.51		2.4585		
0.52		2.4451		
0.53		2.4322		
0.54		2.4195		
0.55		2.4072		
0.56		2.3952		
0.57		2.3834		
0.58		2.372		
0.59		2.3608		
0.6		2.3499		
0.61		2.3392		
0.62		2.3287		
0.63		2.3185		
0.64		2.3085		
0.65		2.2987		
0.66		2.289		
0.67		2.2796		
0.68		2.2704		
0.69		2.2613		
0.7		2.2525		
0.71		2.2437		
0.72		2.2352		
0.73		2.2268		
0.74		2.2185		
0.75		2.2104		
0.76		2.2025		
0.77		2.1946		
0.78		2.1869		
0.79		2.1794		
0.8		2.1719		
0.81		2.1646		
0.82		2.1574		
0.83		2.1503		
0.84		2.1433		
0.85		2.1364		
0.86		2.1296		
0.87		2.123		
0.88		2.1164		
0.89		2.1099		
0.9		2.1035		
0.91		2.0972		
0.92		2.091		
0.93		2.0849		
0.94		2.0788		
0.95		2.0729		
0.96		2.067		
0.97		2.0612		
0.98		2.0554		
0.99		2.0498		
1		2.0442		
1.01		2.0387		
1.02		2.0332		
1.03		2.0279		
1.04		2.0226		
1.05		2.0173		
1.06		2.0121		
1.07		2.007		
1.08		2.0019		
1.09		1.9969		
1.1		1.992		
1.11		1.9871		
1.12		1.9823		
1.13		1.9775		
1.14		1.9728		
1.15		1.9681		
1.16		1.9635		
1.17		1.9589		
1.18		1.9544		
1.19		1.9499		
1.2		1.9455		
1.21		1.9411		
1.22		1.9368		
1.23		1.9325		
1.24		1.9282		
1.25		1.924		
1.26		1.9199		
1.27		1.9158		
1.28		1.9117		
1.29		1.9076		
1.3		1.9036		
1.31		1.8997		
1.32		1.8958		
1.33		1.8919		
1.34		1.888		
1.35		1.8842		
1.36		1.8804		
1.37		1.8767		
1.38		1.873		
1.39		1.8693		
1.4		1.8657		
1.41		1.8621		
1.42		1.8585		
1.43		1.8549		
1.44		1.8514		
1.45		1.8479		
1.46		1.8445		
1.47		1.8411		
1.48		1.8377		
1.49		1.8343		
1.5		1.831		
1.51		1.8277		
1.52		1.8244		
1.53		1.8211		
1.54		1.8179		
1.55		1.8147		
1.56		1.8115		
1.57		1.8084		
1.58		1.8053		
1.59		1.8022		
1.6		1.7991		
1.61		1.796		
1.62		1.793		
1.63		1.79		
1.64		1.787		
1.65		1.7841		
1.66		1.7811		
1.67		1.7782		
1.68		1.7753		
1.69		1.7725		
1.7		1.7696		
1.71		1.7668		
1.72		1.764		
1.73		1.7612		
1.74		1.7584		
1.75		1.7557		
1.76		1.753		
1.77		1.7503		
1.78		1.7476		
1.79		1.7449		
1.8		1.7423		
1.81		1.7396		
1.82		1.737		
1.83		1.7344		
1.84		1.7319		
1.85		1.7293		
1.86		1.7268		
1.87		1.7242		
1.88		1.7217		
1.89		1.7192		
1.9		1.7168		
1.91		1.7143		
1.92		1.7119		
1.93		1.7095		
1.94		1.7071		
1.95		1.7047		
1.96		1.7023		
1.97		1.6999		
1.98		1.6976		
1.99		1.6952		
2		1.6929		
2.01		1.6906		
2.02		1.6883		
2.03		1.6861		
2.04		1.6838		
2.05		1.6816		
2.06		1.6793		
2.07		1.6771		
2.08		1.6749		
2.09		1.6727		
2.1		1.6706		
2.11		1.6684		
2.12		1.6663		
2.13		1.6641		
2.14		1.662		
2.15		1.6599		
2.16		1.6578		
2.17		1.6557		
2.18		1.6536		
2.19		1.6516		
2.2		1.6495		
2.21		1.6475		
2.22		1.6454		
2.23		1.6434		
2.24		1.6414		
2.25		1.6394		
2.26		1.6375		
2.27		1.6355		
2.28		1.6335		
2.29		1.6316		
2.3		1.6296		
2.31		1.6277		
2.32		1.6258		
2.33		1.6239		
2.34		1.622		
2.35		1.6201		
2.36		1.6182		
2.37		1.6164		
2.38		1.6145		
2.39		1.6127		
2.4		1.6109		
2.41		1.609		
2.42		1.6072		
2.43		1.6054		
2.44		1.6036		
2.45		1.6018		
2.46		1.6001		
2.47		1.5983		
2.48		1.5965		
2.49		1.5948		
2.5		1.593		
2.51		1.5913		
2.52		1.5896		
2.53		1.5879		
2.54		1.5862		
2.55		1.5845		
2.56		1.5828		
2.57		1.5811		
2.58		1.5794		
2.59		1.5778		
2.6		1.5761		
2.61		1.5745		
2.62		1.5728		
2.63		1.5712		
2.64		1.5696		
2.65		1.568		
2.66		1.5664		
2.67		1.5648		
2.68		1.5632		
2.69		1.5616		
2.7		1.56		
2.71		1.5584		
2.72		1.5569		
2.73		1.5553		
2.74		1.5538		
2.75		1.5522		
2.76		1.5507		
2.77		1.5492		
2.78		1.5477		
2.79		1.5461		
2.8		1.5446		
2.81		1.5431		
2.82		1.5417		
2.83		1.5402		
2.84		1.5387		
2.85		1.5372		
2.86		1.5358		
2.87		1.5343		
2.88		1.5328		
2.89		1.5314		
2.9		1.53		
2.91		1.5285		
2.92		1.5271		
2.93		1.5257		
2.94		1.5243		
2.95		1.5229		
2.96		1.5215		
2.97		1.5201		
2.98		1.5187		
2.99		1.5173		
3		1.5159		
3.01		1.5146		
3.02		1.5132		
3.03		1.5118		
3.04		1.5105		
3.05		1.5091		
3.06		1.5078		
3.07		1.5065		
3.08		1.5051		
3.09		1.5038		
3.1		1.5025		
3.11		1.5012		
3.12		1.4999		
3.13		1.4986		
3.14		1.4973		
3.15		1.496		
3.16		1.4947		
3.17		1.4934		
3.18		1.4921		
3.19		1.4909		
3.2		1.4896		
3.21		1.4883		
3.22		1.4871		
3.23		1.4858		
3.24		1.4846		
3.25		1.4833		
3.26		1.4821		
3.27		1.4809		
3.28		1.4796		
3.29		1.4784		
3.3		1.4772		
3.31		1.476		
3.32		1.4748		
3.33		1.4736		
3.34		1.4724		
3.35		1.4712		
3.36		1.47		
3.37		1.4688		
3.38		1.4676		
3.39		1.4665		
3.4		1.4653		
3.41		1.4641		
3.42		1.463		
3.43		1.4618		
3.44		1.4606		
3.45		1.4595		
3.46		1.4584		
3.47		1.4572		
3.48		1.4561		
3.49		1.4549		
3.5		1.4538		
3.51		1.4527		
3.52		1.4516		
3.53		1.4505		
3.54		1.4493		
3.55		1.4482		
3.56		1.4471		
3.57		1.446		
3.58		1.4449		
3.59		1.4439		
3.6		1.4428		
3.61		1.4417		
3.62		1.4406		
3.63		1.4395		
3.64		1.4385		
3.65		1.4374		
3.66		1.4363		
3.67		1.4353		
3.68		1.4342		
3.69		1.4332		
3.7		1.4321		
3.71		1.4311		
3.72		1.43		
3.73		1.429		
3.74		1.4279		
3.75		1.4269		
3.76		1.4259		
3.77		1.4249		
3.78		1.4238		
3.79		1.4228		
3.8		1.4218		
3.81		1.4208		
3.82		1.4198		
3.83		1.4188		
3.84		1.4178		
3.85		1.4168		
3.86		1.4158		
3.87		1.4148		
3.88		1.4138		
3.89		1.4128		
3.9		1.4119		
3.91		1.4109		
3.92		1.4099		
3.93		1.4089		
3.94		1.408		
3.95		1.407		
3.96		1.406		
3.97		1.4051		
3.98		1.4041		
3.99		1.4032		
4		1.4022		
4.01		1.4013		
4.02		1.4003		
4.03		1.3994		
4.04		1.3985		
4.05		1.3975		
4.06		1.3966		
4.07		1.3957		
4.08		1.3948		
4.09		1.3938		
4.1		1.3929		
4.11		1.392		
4.12		1.3911		
4.13		1.3902		
4.14		1.3893		
4.15		1.3884		
4.16		1.3875		
4.17		1.3866		
4.18		1.3857		
4.19		1.3848		
4.2		1.3839		
4.21		1.383		
4.22		1.3821		
4.23		1.3812		
4.24		1.3804		
4.25		1.3795		
4.26		1.3786		
4.27		1.3777		
4.28		1.3769		
4.29		1.376		
4.3		1.3751		
4.31		1.3743		
4.32		1.3734		
4.33		1.3726		
4.34		1.3717		
4.35		1.3709		
4.36		1.37		
4.37		1.3692		
4.38		1.3683		
4.39		1.3675		
4.4		1.3667		
4.41		1.3658		
4.42		1.365		
4.43		1.3642		
4.44		1.3633		
4.45		1.3625		
4.46		1.3617		
4.47		1.3609		
4.48		1.36		
4.49		1.3592		
4.5		1.3584		
4.51		1.3576		
4.52		1.3568		
4.53		1.356		
4.54		1.3552		
4.55		1.3544		
4.56		1.3536		
4.57		1.3528		
4.58		1.352		
4.59		1.3512		
4.6		1.3504		
4.61		1.3496		
4.62		1.3488		
4.63		1.3481		
4.64		1.3473		
4.65		1.3465		
4.66		1.3457		
4.67		1.3449		
4.68		1.3442		
4.69		1.3434		
4.7		1.3426		
4.71		1.3419		
4.72		1.3411		
4.73		1.3403		
4.74		1.3396		
4.75		1.3388		
4.76		1.3381		
4.77		1.3373		
4.78		1.3366		
4.79		1.3358		
4.8		1.3351		
4.81		1.3343		
4.82		1.3336		
4.83		1.3328		
4.84		1.3321		
4.85		1.3314		
4.86		1.3306		
4.87		1.3299		
4.88		1.3292		
4.89		1.3284		
4.9		1.3277		
4.91		1.327		
4.92		1.3263		
4.93		1.3255		
4.94		1.3248		
4.95		1.3241		
4.96		1.3234		
4.97		1.3227		
4.98		1.322		
4.99		1.3213		
5		1.3205		
5.01		1.3198		
5.02		1.3191		
5.03		1.3184		
5.04		1.3177		
5.05		1.317		
5.06		1.3163		
5.07		1.3156		
5.08		1.3149		
5.09		1.3143		
5.1		1.3136		
5.11		1.3129		
5.12		1.3122		
5.13		1.3115		
5.14		1.3108		
5.15		1.3101		
5.16		1.3095		
5.17		1.3088		
5.18		1.3081		
5.19		1.3074		
5.2		1.3068		
5.21		1.3061		
5.22		1.3054		
5.23		1.3048		
5.24		1.3041		
5.25		1.3034		
5.26		1.3028		
5.27		1.3021		
5.28		1.3014		
5.29		1.3008		
5.3		1.3001		
5.31		1.2995		
5.32		1.2988		
5.33		1.2982		
5.34		1.2975		
5.35		1.2969		
5.36		1.2962		
5.37		1.2956		
5.38		1.2949		
5.39		1.2943		
5.4		1.2937		
5.41		1.293		
5.42		1.2924		
5.43		1.2918		
5.44		1.2911		
5.45		1.2905		
5.46		1.2899		
5.47		1.2892		
5.48		1.2886		
5.49		1.288		
5.5		1.2874		
5.51		1.2867		
5.52		1.2861		
5.53		1.2855		
5.54		1.2849		
5.55		1.2843		
5.56		1.2836		
5.57		1.283		
5.58		1.2824		
5.59		1.2818		
5.6		1.2812		
5.61		1.2806		
5.62		1.28		
5.63		1.2794		
5.64		1.2788		
5.65		1.2782		
5.66		1.2776		
5.67		1.277		
5.68		1.2764		
5.69		1.2758		
5.7		1.2752		
5.71		1.2746		
5.72		1.274		
5.73		1.2734		
5.74		1.2728		
5.75		1.2722		
5.76		1.2716		
5.77		1.2711		
5.78		1.2705		
5.79		1.2699		
5.8		1.2693		
5.81		1.2687		
5.82		1.2681		
5.83		1.2676		
5.84		1.267		
5.85		1.2664		
5.86		1.2658		
5.87		1.2653		
5.88		1.2647		
5.89		1.2641		
5.9		1.2636		
5.91		1.263		
5.92		1.2624		
5.93		1.2619		
5.94		1.2613		
5.95		1.2607		
5.96		1.2602		
5.97		1.2596		
5.98		1.2591		
5.99		1.2585		
6		1.2579		
6.01		1.2574		
6.02		1.2568		
6.03		1.2563		
6.04		1.2557		
6.05		1.2552		
6.06		1.2546		
6.07		1.2541		
6.08		1.2535		
6.09		1.253		
6.1		1.2525		
6.11		1.2519		
6.12		1.2514		
6.13		1.2508		
6.14		1.2503		
6.15		1.2498		
6.16		1.2492		
6.17		1.2487		
6.18		1.2481		
6.19		1.2476		
6.2		1.2471		
6.21		1.2466		
6.22		1.246		
6.23		1.2455		
6.24		1.245		
6.25		1.2444		
6.26		1.2439		
6.27		1.2434		
6.28		1.2429		
6.29		1.2423		
6.3		1.2418		
6.31		1.2413		
6.32		1.2408		
6.33		1.2403		
6.34		1.2398		
6.35		1.2392		
6.36		1.2387		
6.37		1.2382		
6.38		1.2377		
6.39		1.2372		
6.4		1.2367		
6.41		1.2362		
6.42		1.2357		
6.43		1.2352		
6.44		1.2347		
6.45		1.2342		
6.46		1.2336		
6.47		1.2331		
6.48		1.2326		
6.49		1.2321		
6.5		1.2316		
6.51		1.2311		
6.52		1.2307		
6.53		1.2302		
6.54		1.2297		
6.55		1.2292		
6.56		1.2287		
6.57		1.2282		
6.58		1.2277		
6.59		1.2272		
6.6		1.2267		
6.61		1.2262		
6.62		1.2257		
6.63		1.2253		
6.64		1.2248		
6.65		1.2243		
6.66		1.2238		
6.67		1.2233		
6.68		1.2228		
6.69		1.2224		
6.7		1.2219		
6.71		1.2214		
6.72		1.2209		
6.73		1.2204		
6.74		1.22		
6.75		1.2195		
6.76		1.219		
6.77		1.2186		
6.78		1.2181		
6.79		1.2176		
6.8		1.2171		
6.81		1.2167		
6.82		1.2162		
6.83		1.2157		
6.84		1.2153		
6.85		1.2148		
6.86		1.2143		
6.87		1.2139		
6.88		1.2134		
6.89		1.213		
6.9		1.2125		
6.91		1.212		
6.92		1.2116		
6.93		1.2111		
6.94		1.2107		
6.95		1.2102		
6.96		1.2098		
6.97		1.2093		
6.98		1.2089		
6.99		1.2084		
7		1.208		
7.01		1.2075		
7.02		1.2071		
7.03		1.2066		
7.04		1.2062		
7.05		1.2057		
7.06		1.2053		
7.07		1.2048		
7.08		1.2044		
7.09		1.2039		
7.1		1.2035		
7.11		1.203		
7.12		1.2026		
7.13		1.2022		
7.14		1.2017		
7.15		1.2013		
7.16		1.2008		
7.17		1.2004		
7.18		1.2		
7.19		1.1995		
7.2		1.1991		
7.21		1.1987		
7.22		1.1982		
7.23		1.1978		
7.24		1.1974		
7.25		1.197		
7.26		1.1965		
7.27		1.1961		
7.28		1.1957		
7.29		1.1952		
7.3		1.1948		
7.31		1.1944		
7.32		1.194		
7.33		1.1935		
7.34		1.1931		
7.35		1.1927		
7.36		1.1923		
7.37		1.1919		
7.38		1.1914		
7.39		1.191		
7.4		1.1906		
7.41		1.1902		
7.42		1.1898		
7.43		1.1893		
7.44		1.1889		
7.45		1.1885		
7.46		1.1881		
7.47		1.1877		
7.48		1.1873		
7.49		1.1869		
7.5		1.1865		
7.51		1.186		
7.52		1.1856		
7.53		1.1852		
7.54		1.1848		
7.55		1.1844		
7.56		1.184		
7.57		1.1836		
7.58		1.1832		
7.59		1.1828		
7.6		1.1824		
7.61		1.182		
7.62		1.1816		
7.63		1.1812		
7.64		1.1808		
7.65		1.1804		
7.66		1.18		
7.67		1.1796		
7.68		1.1792		
7.69		1.1788		
7.7		1.1784		
7.71		1.178		
7.72		1.1776		
7.73		1.1772		
7.74		1.1768		
7.75		1.1764		
7.76		1.176		
7.77		1.1757		
7.78		1.1753		
7.79		1.1749		
7.8		1.1745		
7.81		1.1741		
7.82		1.1737		
7.83		1.1733		
7.84		1.1729		
7.85		1.1726		
7.86		1.1722		
7.87		1.1718		
7.88		1.1714		
7.89		1.171		
7.9		1.1706		
7.91		1.1703		
7.92		1.1699		
7.93		1.1695		
7.94		1.1691		
7.95		1.1687		
7.96		1.1684		
7.97		1.168		
7.98		1.1676		
7.99		1.1672		
8		1.1669		
8.01		1.1665		
8.02		1.1661		
8.03		1.1657		
8.04		1.1654		
8.05		1.165		
8.06		1.1646		
8.07		1.1642		
8.08		1.1639		
8.09		1.1635		
8.1		1.1631		
8.11		1.1628		
8.12		1.1624		
8.13		1.162		
8.14		1.1617		
8.15		1.1613		
8.16		1.1609		
8.17		1.1606		
8.18		1.1602		
8.19		1.1599		
8.2		1.1595		
8.21		1.1591		
8.22		1.1588		
8.23		1.1584		
8.24		1.158		
8.25		1.1577		
8.26		1.1573		
8.27		1.157		
8.28		1.1566		
8.29		1.1563		
8.3		1.1559		
8.31		1.1555		
8.32		1.1552		
8.33		1.1548		
8.34		1.1545		
8.35		1.1541		
8.36		1.1538		
8.37		1.1534		
8.38		1.1531		
8.39		1.1527		
8.4		1.1524		
8.41		1.152		
8.42		1.1517		
8.43		1.1513		
8.44		1.151		
8.45		1.1506		
8.46		1.1503		
8.47		1.1499		
8.48		1.1496		
8.49		1.1492		
8.5		1.1489		
8.51		1.1485		
8.52		1.1482		
8.53		1.1479		
8.54		1.1475		
8.55		1.1472		
8.56		1.1468		
8.57		1.1465		
8.58		1.1462		
8.59		1.1458		
8.6		1.1455		
8.61		1.1451		
8.62		1.1448		
8.63		1.1445		
8.64		1.1441		
8.65		1.1438		
8.66		1.1435		
8.67		1.1431		
8.68		1.1428		
8.69		1.1425		
8.7		1.1421		
8.71		1.1418		
8.72		1.1415		
8.73		1.1411		
8.74		1.1408		
8.75		1.1405		
8.76		1.1401		
8.77		1.1398		
8.78		1.1395		
8.79		1.1391		
8.8		1.1388		
8.81		1.1385		
8.82		1.1382		
8.83		1.1378		
8.84		1.1375		
8.85		1.1372		
8.86		1.1369		
8.87		1.1365		
8.88		1.1362		
8.89		1.1359		
8.9		1.1356		
8.91		1.1352		
8.92		1.1349		
8.93		1.1346		
8.94		1.1343		
8.95		1.134		
8.96		1.1336		
8.97		1.1333		
8.98		1.133		
8.99		1.1327		
9		1.1324		
9.01		1.132		
9.02		1.1317		
9.03		1.1314		
9.04		1.1311		
9.05		1.1308		
9.06		1.1305		
9.07		1.1301		
9.08		1.1298		
9.09		1.1295		
9.1		1.1292		
9.11		1.1289		
9.12		1.1286		
9.13		1.1283		
9.14		1.128		
9.15		1.1277		
9.16		1.1273		
9.17		1.127		
9.18		1.1267		
9.19		1.1264		
9.2		1.1261		
9.21		1.1258		
9.22		1.1255		
9.23		1.1252		
9.24		1.1249		
9.25		1.1246		
9.26		1.1243		
9.27		1.124		
9.28		1.1237		
9.29		1.1234		
9.3		1.1231		
9.31		1.1227		
9.32		1.1224		
9.33		1.1221		
9.34		1.1218		
9.35		1.1215		
9.36		1.1212		
9.37		1.1209		
9.38		1.1206		
9.39		1.1203		
9.4		1.12		
9.41		1.1197		
9.42		1.1194		
9.43		1.1191		
9.44		1.1189		
9.45		1.1186		
9.46		1.1183		
9.47		1.118		
9.48		1.1177		
9.49		1.1174		
9.5		1.1171		
9.51		1.1168		
9.52		1.1165		
9.53		1.1162		
9.54		1.1159		
9.55		1.1156		
9.56		1.1153		
9.57		1.115		
9.58		1.1147		
9.59		1.1145		
9.6		1.1142		
9.61		1.1139		
9.62		1.1136		
9.63		1.1133		
9.64		1.113		
9.65		1.1127		
9.66		1.1124		
9.67		1.1121		
9.68		1.1119		
9.69		1.1116		
9.7		1.1113		
9.71		1.111		
9.72		1.1107		
9.73		1.1104		
9.74		1.1102		
9.75		1.1099		
9.76		1.1096		
9.77		1.1093		
9.78		1.109		
9.79		1.1087		
9.8		1.1085		
9.81		1.1082		
9.82		1.1079		
9.83		1.1076		
9.84		1.1073		
9.85		1.1071		
9.86		1.1068		
9.87		1.1065		
9.88		1.1062		
9.89		1.1059		
9.9		1.1057		
9.91		1.1054		
9.92		1.1051		
9.93		1.1048		
9.94		1.1046		
9.95		1.1043		
9.96		1.104		
9.97		1.1037		
9.98		1.1035		
9.99		1.1032		
10		1.1029		
10.01		1.1026		
10.02		1.1024		
10.03		1.1021		
10.04		1.1018		
10.05		1.1016		
10.06		1.1013		
10.07		1.101		
10.08		1.1007		
10.09		1.1005		
10.1		1.1002		
10.11		1.0999		
10.12		1.0997		
10.13		1.0994		
10.14		1.0991		
10.15		1.0989		
10.16		1.0986		
10.17		1.0983		
10.18		1.0981		
10.19		1.0978		
10.2		1.0975		
10.21		1.0973		
10.22		1.097		
10.23		1.0967		
10.24		1.0965		
10.25		1.0962		
10.26		1.0959		
10.27		1.0957		
10.28		1.0954		
10.29		1.0952		
10.3		1.0949		
10.31		1.0946		
10.32		1.0944		
10.33		1.0941		
10.34		1.0939		
10.35		1.0936		
10.36		1.0933		
10.37		1.0931		
10.38		1.0928		
10.39		1.0926		
10.4		1.0923		
10.41		1.092		
10.42		1.0918		
10.43		1.0915		
10.44		1.0913		
10.45		1.091		
10.46		1.0908		
10.47		1.0905		
10.48		1.0902		
10.49		1.09		
10.5		1.0897		
10.51		1.0895		
10.52		1.0892		
10.53		1.089		
10.54		1.0887		
10.55		1.0885		
10.56		1.0882		
10.57		1.088		
10.58		1.0877		
10.59		1.0875		
10.6		1.0872		
10.61		1.087		
10.62		1.0867		
10.63		1.0865		
10.64		1.0862		
10.65		1.086		
10.66		1.0857		
10.67		1.0855		
10.68		1.0852		
10.69		1.085		
10.7		1.0847		
10.71		1.0845		
10.72		1.0842		
10.73		1.084		
10.74		1.0837		
10.75		1.0835		
10.76		1.0832		
10.77		1.083		
10.78		1.0828		
10.79		1.0825		
10.8		1.0823		
10.81		1.082		
10.82		1.0818		
10.83		1.0815		
10.84		1.0813		
10.85		1.081		
10.86		1.0808		
10.87		1.0806		
10.88		1.0803		
10.89		1.0801		
10.9		1.0798		
10.91		1.0796		
10.92		1.0794		
10.93		1.0791		
10.94		1.0789		
10.95		1.0786		
10.96		1.0784		
10.97		1.0782		
10.98		1.0779		
10.99		1.0777		
11		1.0774		
11.01		1.0772		
11.02		1.077		
11.03		1.0767		
11.04		1.0765		
11.05		1.0763		
11.06		1.076		
11.07		1.0758		
11.08		1.0756		
11.09		1.0753		
11.1		1.0751		
11.11		1.0749		
11.12		1.0746		
11.13		1.0744		
11.14		1.0742		
11.15		1.0739		
11.16		1.0737		
11.17		1.0735		
11.18		1.0732		
11.19		1.073		
11.2		1.0728		
11.21		1.0725		
11.22		1.0723		
11.23		1.0721		
11.24		1.0718		
11.25		1.0716		
11.26		1.0714		
11.27		1.0711		
11.28		1.0709		
11.29		1.0707		
11.3		1.0705		
11.31		1.0702		
11.32		1.07		
11.33		1.0698		
11.34		1.0696		
11.35		1.0693		
11.36		1.0691		
11.37		1.0689		
11.38		1.0686		
11.39		1.0684		
11.4		1.0682		
11.41		1.068		
11.42		1.0677		
11.43		1.0675		
11.44		1.0673		
11.45		1.0671		
11.46		1.0668		
11.47		1.0666		
11.48		1.0664		
11.49		1.0662		
11.5		1.066		
11.51		1.0657		
11.52		1.0655		
11.53		1.0653		
11.54		1.0651		
11.55		1.0648		
11.56		1.0646		
11.57		1.0644		
11.58		1.0642		
11.59		1.064		
11.6		1.0637		
11.61		1.0635		
11.62		1.0633		
11.63		1.0631		
11.64		1.0629		
11.65		1.0626		
11.66		1.0624		
11.67		1.0622		
11.68		1.062		
11.69		1.0618		
11.7		1.0616		
11.71		1.0613		
11.72		1.0611		
11.73		1.0609		
11.74		1.0607		
11.75		1.0605		
11.76		1.0603		
11.77		1.0601		
11.78		1.0598		
11.79		1.0596		
11.8		1.0594		
11.81		1.0592		
11.82		1.059		
11.83		1.0588		
11.84		1.0586		
11.85		1.0583		
11.86		1.0581		
11.87		1.0579		
11.88		1.0577		
11.89		1.0575		
11.9		1.0573		
11.91		1.0571		
11.92		1.0569		
11.93		1.0566		
11.94		1.0564		
11.95		1.0562		
11.96		1.056		
11.97		1.0558		
11.98		1.0556		
11.99		1.0554		
12		1.0552		
12.01		1.055		
12.02		1.0548		
12.03		1.0546		
12.04		1.0543		
12.05		1.0541		
12.06		1.0539		
12.07		1.0537		
12.08		1.0535		
12.09		1.0533		
12.1		1.0531		
12.11		1.0529		
12.12		1.0527		
12.13		1.0525		
12.14		1.0523		
12.15		1.0521		
12.16		1.0519		
12.17		1.0517		
12.18		1.0515		
12.19		1.0513		
12.2		1.0511		
12.21		1.0509		
12.22		1.0506		
12.23		1.0504		
12.24		1.0502		
12.25		1.05		
12.26		1.0498		
12.27		1.0496		
12.28		1.0494		
12.29		1.0492		
12.3		1.049		
12.31		1.0488		
12.32		1.0486		
12.33		1.0484		
12.34		1.0482		
12.35		1.048		
12.36		1.0478		
12.37		1.0476		
12.38		1.0474		
12.39		1.0472		
12.4		1.047		
12.41		1.0468		
12.42		1.0466		
12.43		1.0464		
12.44		1.0462		
12.45		1.046		
12.46		1.0458		
12.47		1.0456		
12.48		1.0454		
12.49		1.0452		
12.5		1.0451		
12.51		1.0449		
12.52		1.0447		
12.53		1.0445		
12.54		1.0443		
12.55		1.0441		
12.56		1.0439		
12.57		1.0437		
12.58		1.0435		
12.59		1.0433		
12.6		1.0431		
12.61		1.0429		
12.62		1.0427		
12.63		1.0425		
12.64		1.0423		
12.65		1.0421		
12.66		1.0419		
12.67		1.0417		
12.68		1.0416		
12.69		1.0414		
12.7		1.0412		
12.71		1.041		
12.72		1.0408		
12.73		1.0406		
12.74		1.0404		
12.75		1.0402		
12.76		1.04		
12.77		1.0398		
12.78		1.0396		
12.79		1.0395		
12.8		1.0393		
12.81		1.0391		
12.82		1.0389		
12.83		1.0387		
12.84		1.0385		
12.85		1.0383		
12.86		1.0381		
12.87		1.0379		
12.88		1.0378		
12.89		1.0376		
12.9		1.0374		
12.91		1.0372		
12.92		1.037		
12.93		1.0368		
12.94		1.0366		
12.95		1.0364		
12.96		1.0363		
12.97		1.0361		
12.98		1.0359		
12.99		1.0357		
13		1.0355		
13.01		1.0353		
13.02		1.0351		
13.03		1.035		
13.04		1.0348		
13.05		1.0346		
13.06		1.0344		
13.07		1.0342		
13.08		1.034		
13.09		1.0339		
13.1		1.0337		
13.11		1.0335		
13.12		1.0333		
13.13		1.0331		
13.14		1.0329		
13.15		1.0328		
13.16		1.0326		
13.17		1.0324		
13.18		1.0322		
13.19		1.032		
13.2		1.0319		
13.21		1.0317		
13.22		1.0315		
13.23		1.0313		
13.24		1.0311		
13.25		1.031		
13.26		1.0308		
13.27		1.0306		
13.28		1.0304		
13.29		1.0302		
13.3		1.0301		
13.31		1.0299		
13.32		1.0297		
13.33		1.0295		
13.34		1.0293		
13.35		1.0292		
13.36		1.029		
13.37		1.0288		
13.38		1.0286		
13.39		1.0285		
13.4		1.0283		
13.41		1.0281		
13.42		1.0279		
13.43		1.0278		
13.44		1.0276		
13.45		1.0274		
13.46		1.0272		
13.47		1.027		
13.48		1.0269		
13.49		1.0267		
13.5		1.0265		
13.51		1.0263		
13.52		1.0262		
13.53		1.026		
